tiempo,valor
38000.0,507.0
38001.0,503.0
38002.0,501.0
38003.0,511.0
38004.0,499.0
38005.0,500.0
38006.0,504.0
38007.0,508.0
38008.0,506.0
38009.0,513.0
38010.0,512.0
38011.0,519.0
38012.0,517.0
38013.0,518.0
38014.0,503.0
38015.0,506.0
38016.0,517.0
38017.0,515.0
38018.0,502.0
38019.0,502.0
38020.0,505.0
38021.0,497.0
38022.0,500.0
38023.0,515.0
38024.0,515.0
38025.0,514.0
38026.0,504.0
38027.0,514.0
38028.0,517.0
38029.0,515.0
38030.0,514.0
38031.0,516.0
38032.0,510.0
38033.0,507.0
38034.0,503.0
38035.00000000001,504.0
38036.0,507.0
38037.0,502.0
38038.00000000001,502.0
38039.0,502.0
38040.0,515.0
38041.00000000001,505.0
38042.0,508.0
38043.0,517.0
38044.00000000001,512.0
38045.0,517.0
38046.0,512.0
38047.00000000001,517.0
38048.0,508.0
38049.0,510.0
38050.00000000001,512.0
38051.0,504.0
38052.0,503.0
38053.0,502.0
38054.0,509.0
38055.0,505.0
38056.0,505.0
38057.0,511.0
38058.0,509.0
38059.0,509.0
38060.0,517.0
38061.0,515.0
38062.0,516.0
38063.0,515.0
38064.0,514.0
38065.0,505.0
38066.0,509.0
38067.0,505.0
38068.0,502.0
38069.0,503.0
38070.0,503.0
38071.0,498.0
38072.0,499.0
38073.0,510.0
38074.0,510.0
38075.0,514.0
38076.0,515.0
38077.0,516.0
38078.0,506.0
38079.0,512.0
38080.0,510.0
38081.0,510.0
38082.0,511.0
38083.0,511.0
38084.0,513.0
38085.0,499.0
38086.0,499.0
38087.0,507.0
38088.0,498.0
38089.0,507.0
38090.0,510.0
38091.0,510.0
38092.0,513.0
38093.0,512.0
38094.0,515.0
38095.0,510.0
38096.0,514.0
38097.0,508.0
38098.0,506.0
38099.00000000001,517.0
38100.0,518.0
38101.0,499.0
38102.00000000001,506.0
38103.0,500.0
38104.0,504.0
38105.00000000001,507.0
38106.0,497.0
38107.0,507.0
38108.00000000001,515.0
38109.0,514.0
38110.0,512.0
38111.00000000001,515.0
38112.0,513.0
38113.0,519.0
38114.00000000001,520.0
38115.0,510.0
38116.0,505.0
38117.0,513.0
38118.0,494.0
38119.0,500.0
38120.0,500.0
38121.0,496.0
38122.0,502.0
38123.0,506.0
38124.0,515.0
38125.0,509.0
38126.0,509.0
38127.0,520.0
38128.0,512.0
38129.0,514.0
38130.0,523.0
38131.0,518.0
38132.0,507.0
38133.0,507.0
38134.0,508.0
38135.0,496.0
38136.0,500.0
38137.0,505.0
38138.0,497.0
38139.0,503.0
38140.0,507.0
38141.0,514.0
38142.0,515.0
38143.0,518.0
38144.0,513.0
38145.0,507.0
38146.0,514.0
38147.0,509.0
38148.0,509.0
38149.0,513.0
38150.0,515.0
38151.0,506.0
38152.0,501.0
38153.0,500.0
38154.0,506.0
38155.0,501.0
38156.0,507.0
38157.0,510.0
38158.0,510.0
38159.0,512.0
38160.00000000001,503.0
38161.0,510.0
38162.0,512.0
38163.00000000001,519.0
38164.0,505.0
38165.0,511.0
38166.00000000001,515.0
38167.0,505.0
38168.0,504.0
38169.00000000001,502.0
38170.0,513.0
38171.0,504.0
38172.00000000001,500.0
38173.0,501.0
38174.0,505.0
38175.00000000001,516.0
38176.0,505.0
38177.0,521.0
38178.0,512.0
38179.0,513.0
38180.0,520.0
38181.0,513.0
38182.0,511.0
38183.0,503.0
38184.0,512.0
38185.0,502.0
38186.0,503.0
38187.0,500.0
38188.0,498.0
38189.0,501.0
38190.0,516.0
38191.0,513.0
38192.0,517.0
38193.0,515.0
38194.0,508.0
38195.0,508.0
38196.0,509.0
38197.0,523.0
38198.0,517.0
38199.0,515.0
38200.0,507.0
38201.0,499.0
38202.0,498.0
38203.0,512.0
38204.0,511.0
38205.0,499.0
38206.0,502.0
38207.0,513.0
38208.0,515.0
38209.0,516.0
38210.0,516.0
38211.0,505.0
38212.0,507.0
38213.0,512.0
38214.0,511.0
38215.0,508.0
38216.0,512.0
38217.0,505.0
38218.0,510.0
38219.0,504.0
38220.0,504.0
38221.0,494.0
38222.0,496.0
38223.0,508.0
38224.00000000001,511.0
38225.0,505.0
38226.0,518.0
38227.00000000001,509.0
38228.0,516.0
38229.0,513.0
38230.00000000001,512.0
38231.0,515.0
38232.0,511.0
38233.00000000001,516.0
38234.0,508.0
38235.0,502.0
38236.00000000001,503.0
38237.0,506.0
38238.0,501.0
38239.00000000001,500.0
38240.0,512.0
38241.0,515.0
38242.0,511.0
38243.0,514.0
38244.0,516.0
38245.0,512.0
38246.0,512.0
38247.0,504.0
38248.0,504.0
38249.0,513.0
38250.0,510.0
38251.0,510.0
38252.0,505.0
38253.0,502.0
38254.0,501.0
38255.0,505.0
38256.0,508.0
38257.0,515.0
38258.0,506.0
38259.0,507.0
38260.0,512.0
38261.0,511.0
38262.0,519.0
38263.0,518.0
38264.0,504.0
38265.0,513.0
38266.0,517.0
38267.0,512.0
38268.0,502.0
38269.0,501.0
38270.0,503.0
38271.0,503.0
38272.0,502.0
38273.0,503.0
38274.0,512.0
38275.0,510.0
38276.0,517.0
38277.0,512.0
38278.0,511.0
38279.0,514.0
38280.0,513.0
38281.0,509.0
38282.0,511.0
38283.0,507.0
38284.0,511.0
38285.00000000001,497.0
38286.0,508.0
38287.0,499.0
38288.00000000001,499.0
38289.0,509.0
38290.0,509.0
38291.00000000001,511.0
38292.0,512.0
38293.0,515.0
38294.00000000001,506.0
38295.0,512.0
38296.0,512.0
38297.00000000001,510.0
38298.0,510.0
38299.0,519.0
38300.00000000001,513.0
38301.0,505.0
38302.0,496.0
38303.0,507.0
38304.0,501.0
38305.0,502.0
38306.0,505.0
38307.0,513.0
38308.0,513.0
38309.0,511.0
38310.0,510.0
38311.0,510.0
38312.0,512.0
38313.0,514.0
38314.0,515.0
38315.0,508.0
38316.0,514.0
38317.0,505.0
38318.0,498.0
38319.0,501.0
38320.0,508.0
38321.0,504.0
38322.0,497.0
38323.0,503.0
38324.0,514.0
38325.0,510.0
38326.0,515.0
38327.0,511.0
38328.0,516.0
38329.0,519.0
38330.0,519.0
38331.0,511.0
38332.0,510.0
38333.0,510.0
38334.0,510.0
38335.0,502.0
38336.0,504.0
38337.0,502.0
38338.0,495.0
38339.0,508.0
38340.0,508.0
38341.0,506.0
38342.0,513.0
38343.0,518.0
38344.0,518.0
38345.0,511.0
38346.0,511.0
38347.0,517.0
38348.0,516.0
38349.00000000001,507.0
38350.0,511.0
38351.0,501.0
38352.00000000001,500.0
38353.0,509.0
38354.0,502.0
38355.00000000001,499.0
38356.0,499.0
38357.0,515.0
38358.00000000001,508.0
38359.0,507.0
38360.0,511.0
38361.00000000001,511.0
38362.0,509.0
38363.0,513.0
38364.00000000001,517.0
38365.0,505.0
38366.0,515.0
38367.0,508.0
38368.0,500.0
38369.0,510.0
38370.0,504.0
38371.0,504.0
38372.0,508.0
38373.0,512.0
38374.0,513.0
38375.0,500.0
38376.0,505.0
38377.0,505.0
38378.0,513.0
38379.0,524.0
38380.0,519.0
38381.0,513.0
38382.0,508.0
38383.0,509.0
38384.0,510.0
38385.0,498.0
38386.0,504.0
38387.0,506.0
38388.0,499.0
38389.0,511.0
38390.0,508.0
38391.0,505.0
38392.0,504.0
38393.0,515.0
38394.0,518.0
38395.0,502.0
38396.0,515.0
38397.0,515.0
38398.0,504.0
38399.0,518.0
38400.0,510.0
38401.0,507.0
38402.0,502.0
38403.0,502.0
38404.0,505.0
38405.0,505.0
38406.0,509.0
38407.0,507.0
38408.0,501.0
38409.0,514.0
38410.00000000001,511.0
38411.0,515.0
38412.0,510.0
38413.00000000001,512.0
38414.0,512.0
38415.0,504.0
38416.00000000001,510.0
38417.0,513.0
38418.0,508.0
38419.00000000001,501.0
38420.0,510.0
38421.0,497.0
38422.00000000001,493.0
38423.0,504.0
38424.0,507.0
38425.00000000001,506.0
38426.0,507.0
38427.0,523.0
38428.0,523.0
38429.0,523.0
38430.0,516.0
38431.0,506.0
38432.0,511.0
38433.0,508.0
38434.0,513.0
38435.0,499.0
38436.0,502.0
38437.0,500.0
38438.0,498.0
38439.0,501.0
38440.0,513.0
38441.0,508.0
38442.0,511.0
38443.0,517.0
38444.0,516.0
38445.0,514.0
38446.0,517.0
38447.0,512.0
38448.0,503.0
38449.0,510.0
38450.0,508.0
38451.0,502.0
38452.0,503.0
38453.0,506.0
38454.0,507.0
38455.0,496.0
38456.0,501.0
38457.0,511.0
38458.0,511.0
38459.0,513.0
38460.0,511.0
38461.0,516.0
38462.0,511.0
38463.0,516.0
38464.0,518.0
38465.0,502.0
38466.0,508.0
38467.0,507.0
38468.0,498.0
38469.0,499.0
38470.0,512.0
38471.0,505.0
38472.0,500.0
38473.0,511.0
38474.00000000001,514.0
38475.0,515.0
38476.0,510.0
38477.00000000001,516.0
38478.0,508.0
38479.0,504.0
38480.00000000001,515.0
38481.0,507.0
38482.0,514.0
38483.00000000001,514.0
38484.0,509.0
38485.0,496.0
38486.00000000001,508.0
38487.0,507.0
38488.0,504.0
38489.00000000001,505.0
38490.0,511.0
38491.0,506.0
38492.0,504.0
38493.0,513.0
38494.0,515.0
38495.0,516.0
38496.0,512.0
38497.0,517.0
38498.0,513.0
38499.0,504.0
38500.0,513.0
38501.0,506.0
38502.0,501.0
38503.0,504.0
38504.0,501.0
38505.0,505.0
38506.0,504.0
38507.0,504.0
38508.0,518.0
38509.0,513.0
38510.0,509.0
38511.0,515.0
38512.0,511.0
38513.0,521.0
38514.0,513.0
38515.0,505.0
38516.0,512.0
38517.0,510.0
38518.0,498.0
38519.0,500.0
38520.0,507.0
38521.0,499.0
38522.0,499.0
38523.0,511.0
38524.0,512.0
38525.0,505.0
38526.0,514.0
38527.0,513.0
38528.0,519.0
38529.0,516.0
38530.0,516.0
38531.0,508.0
38532.0,504.0
38533.0,514.0
38534.0,499.0
38535.00000000001,501.0
38536.0,505.0
38537.0,504.0
38538.00000000001,499.0
38539.0,510.0
38540.0,513.0
38541.00000000001,514.0
38542.0,512.0
38543.0,516.0
38544.00000000001,506.0
38545.0,514.0
38546.0,519.0
38547.00000000001,515.0
38548.0,508.0
38549.0,509.0
38550.00000000001,514.0
38551.0,505.0
38552.0,502.0
38553.0,512.0
38554.0,505.0
38555.0,499.0
38556.0,504.0
38557.0,506.0
38558.0,511.0
38559.0,512.0
38560.0,514.0
38561.0,512.0
38562.0,509.0
38563.0,515.0
38564.0,514.0
38565.0,512.0
38566.0,510.0
38567.0,511.0
38568.0,500.0
38569.0,494.0
38570.0,505.0
38571.0,507.0
38572.0,499.0
38573.0,504.0
38574.0,509.0
38575.0,514.0
38576.0,518.0
38577.0,512.0
38578.0,514.0
38579.0,512.0
38580.0,513.0
38581.0,507.0
38582.0,512.0
38583.0,514.0
38584.0,508.0
38585.0,500.0
38586.0,505.0
38587.0,504.0
38588.0,498.0
38589.0,510.0
38590.0,511.0
38591.0,511.0
38592.0,508.0
38593.0,511.0
38594.0,514.0
38595.0,511.0
38596.0,514.0
38597.0,515.0
38598.0,508.0
38599.00000000001,511.0
38600.0,509.0
38601.0,509.0
38602.00000000001,500.0
38603.0,503.0
38604.0,506.0
38605.00000000001,508.0
38606.0,505.0
38607.0,513.0
38608.00000000001,506.0
38609.0,509.0
38610.0,513.0
38611.00000000001,514.0
38612.0,509.0
38613.0,512.0
38614.00000000001,511.0
38615.0,505.0
38616.0,510.0
38617.0,512.0
38618.0,502.0
38619.0,504.0
38620.0,497.0
38621.0,505.0
38622.0,508.0
38623.0,499.0
38624.0,511.0
38625.0,514.0
38626.0,513.0
38627.0,519.0
38628.0,512.0
38629.0,521.0
38630.0,521.0
38631.0,511.0
38632.0,508.0
38633.0,508.0
38634.0,500.0
38635.0,492.0
38636.0,504.0
38637.0,502.0
38638.0,501.0
38639.0,508.0
38640.0,509.0
38641.0,508.0
38642.0,518.0
38643.0,513.0
38644.0,505.0
38645.0,513.0
38646.0,516.0
38647.0,515.0
38648.0,508.0
38649.0,511.0
38650.0,503.0
38651.0,505.0
38652.0,504.0
38653.0,503.0
38654.0,510.0
38655.0,506.0
38656.0,503.0
38657.0,495.0
38658.0,506.0
38659.0,510.0
38660.00000000001,515.0
38661.0,516.0
38662.0,512.0
38663.00000000001,516.0
38664.0,512.0
38665.0,512.0
38666.00000000001,510.0
38667.0,510.0
38668.0,502.0
38669.00000000001,507.0
38670.0,508.0
38671.0,509.0
38672.00000000001,494.0
38673.0,508.0
38674.0,504.0
38675.00000000001,517.0
38676.0,517.0
38677.0,510.0
38678.0,504.0
38679.0,511.0
38680.0,518.0
38681.0,507.0
38682.0,513.0
38683.0,508.0
38684.0,511.0
38685.0,499.0
38686.0,504.0
38687.0,499.0
38688.0,502.0
38689.0,507.0
38690.0,509.0
38691.0,515.0
38692.0,511.0
38693.0,519.0
38694.0,511.0
38695.0,500.0
38696.0,516.0
38697.0,508.0
38698.0,510.0
38699.0,515.0
38700.0,514.0
38701.0,512.0
38702.0,499.0
38703.0,501.0
38704.0,508.0
38705.0,496.0
38706.0,506.0
38707.0,511.0
38708.0,511.0
38709.0,508.0
38710.0,519.0
38711.0,513.0
38712.0,504.0
38713.0,518.0
38714.0,509.0
38715.0,510.0
38716.0,511.0
38717.0,509.0
38718.0,499.0
38719.0,503.0
38720.0,507.0
38721.0,504.0
38722.0,493.0
38723.0,507.0
38724.00000000001,509.0
38725.0,511.0
38726.0,506.0
38727.00000000001,516.0
38728.0,515.0
38729.0,514.0
38730.00000000001,506.0
38731.0,511.0
38732.0,511.0
38733.00000000001,511.0
38734.0,511.0
38735.0,504.0
38736.00000000001,509.0
38737.0,505.0
38738.0,501.0
38739.00000000001,500.0
38740.0,509.0
38741.0,508.0
38742.0,512.0
38743.0,511.0
38744.0,514.0
38745.0,514.0
38746.0,515.0
38747.0,507.0
38748.0,508.0
38749.0,512.0
38750.0,511.0
38751.0,504.0
38752.0,499.0
38753.0,512.0
38754.0,498.0
38755.0,503.0
38756.0,502.0
38757.0,514.0
38758.0,508.0
38759.0,509.0
38760.0,515.0
38761.0,511.0
38762.0,512.0
38763.0,512.0
38764.0,515.0
38765.0,510.0
38766.0,515.0
38767.0,512.0
38768.0,502.0
38769.0,500.0
38770.0,505.0
38771.0,501.0
38772.0,504.0
38773.0,507.0
38774.0,510.0
38775.0,505.0
38776.0,508.0
38777.0,505.0
38778.0,515.0
38779.0,519.0
38780.0,512.0
38781.0,512.0
38782.0,511.0
38783.0,512.0
38784.0,509.0
38785.00000000001,505.0
38786.0,505.0
38787.0,496.0
38788.00000000001,505.0
38789.0,501.0
38790.0,514.0
38791.00000000001,508.0
38792.0,511.0
38793.0,509.0
38794.00000000001,517.0
38795.0,510.0
38796.0,514.0
38797.00000000001,515.0
38798.0,511.0
38799.0,511.0
38800.00000000001,518.0
38801.0,508.0
38802.0,505.0
38803.0,501.0
38804.0,502.0
38805.0,500.0
38806.0,501.0
38807.0,506.0
38808.0,502.0
38809.0,509.0
38810.0,519.0
38811.0,511.0
38812.0,513.0
38813.0,515.0
38814.0,512.0
38815.0,508.0
38816.0,500.0
38817.0,512.0
38818.0,515.0
38819.0,504.0
38820.0,510.0
38821.0,504.0
38822.0,501.0
38823.0,507.0
38824.0,507.0
38825.0,504.0
38826.0,517.0
38827.0,516.0
38828.0,510.0
38829.0,510.0
38830.0,522.0
38831.0,514.0
38832.0,507.0
38833.0,504.0
38834.0,512.0
38835.0,504.0
38836.0,508.0
38837.0,508.0
38838.0,504.0
38839.0,509.0
38840.0,508.0
38841.0,508.0
38842.0,511.0
38843.0,512.0
38844.0,511.0
38845.0,508.0
38846.0,512.0
38847.0,512.0
38848.0,511.0
38849.00000000001,514.0
38850.0,510.0
38851.0,502.0
38852.00000000001,510.0
38853.0,513.0
38854.0,510.0
38855.00000000001,498.0
38856.0,506.0
38857.0,513.0
38858.00000000001,503.0
38859.0,511.0
38860.0,508.0
38861.00000000001,515.0
38862.0,514.0
38863.0,514.0
38864.00000000001,513.0
38865.0,504.0
38866.0,503.0
38867.0,507.0
38868.0,501.0
38869.0,499.0
38870.0,509.0
38871.0,510.0
38872.0,501.0
38873.0,502.0
38874.0,513.0
38875.0,515.0
38876.0,512.0
38877.0,518.0
38878.0,514.0
38879.0,512.0
38880.0,513.0
38881.0,517.0
38882.0,510.0
38883.0,511.0
38884.0,510.0
38885.0,498.0
38886.0,499.0
38887.0,500.0
38888.0,496.0
38889.0,511.0
38890.0,513.0
38891.0,517.0
38892.0,506.0
38893.0,512.0
38894.0,515.0
38895.0,518.0
38896.0,515.0
38897.0,510.0
38898.0,505.0
38899.0,512.0
38900.0,511.0
38901.0,512.0
38902.0,503.0
38903.0,511.0
38904.0,508.0
38905.0,498.0
38906.0,504.0
38907.0,511.0
38908.0,512.0
38909.0,510.0
38910.00000000001,513.0
38911.0,510.0
38912.0,509.0
38913.00000000001,511.0
38914.0,509.0
38915.0,508.0
38916.00000000001,512.0
38917.0,511.0
38918.0,501.0
38919.00000000001,504.0
38920.0,504.0
38921.0,504.0
38922.00000000001,496.0
38923.0,506.0
38924.0,511.0
38925.00000000001,507.0
38926.0,512.0
38927.0,512.0
38928.0,517.0
38929.0,512.0
38930.0,518.0
38931.0,511.0
38932.0,510.0
38933.0,511.0
38934.0,509.0
38935.0,504.0
38936.0,499.0
38937.0,503.0
38938.0,499.0
38939.0,504.0
38940.0,504.0
38941.0,507.0
38942.0,510.0
38943.0,507.0
38944.0,508.0
38945.0,516.0
38946.0,515.0
38947.0,513.0
38948.0,516.0
38949.0,518.0
38950.0,515.0
38951.0,512.0
38952.0,500.0
38953.0,505.0
38954.0,502.0
38955.0,499.0
38956.0,503.0
38957.0,501.0
38958.0,503.0
38959.0,515.0
38960.0,521.0
38961.0,513.0
38962.0,512.0
38963.0,513.0
38964.0,509.0
38965.0,511.0
38966.0,512.0
38967.0,511.0
38968.0,507.0
38969.0,499.0
38970.0,503.0
38971.0,499.0
38972.0,502.0
38973.0,507.0
38974.00000000001,509.0
38975.0,510.0
38976.0,512.0
38977.00000000001,516.0
38978.0,511.0
38979.0,515.0
38980.00000000001,520.0
38981.0,516.0
38982.0,510.0
38983.00000000001,511.0
38984.0,512.0
38985.0,493.0
38986.00000000001,506.0
38987.0,508.0
38988.0,495.0
38989.00000000001,502.0
38990.0,511.0
38991.0,510.0
38992.0,514.0
38993.0,512.0
38994.0,511.0
38995.0,516.0
38996.0,510.0
38997.0,502.0
38998.0,512.0
38999.0,513.0
39000.0,513.0
39001.0,509.0
39002.0,502.0
39003.0,501.0
39004.0,502.0
39005.0,504.0
39006.0,507.0
39007.0,513.0
39008.0,505.0
39009.0,515.0
39010.0,515.0
39011.0,512.0
39012.0,509.0
39013.0,520.0
39014.0,512.0
39015.0,508.0
39016.0,510.0
39017.0,508.0
39018.0,504.0
39019.0,509.0
39020.0,501.0
39021.0,499.0
39022.0,505.0
39023.0,504.0
39024.0,514.0
39025.0,512.0
39026.0,510.0
39027.0,510.0
39028.0,511.0
39029.0,512.0
39030.0,519.0
39031.0,513.0
39032.0,513.0
39033.0,515.0
39034.0,506.0
39035.00000000001,495.0
39036.0,504.0
39037.0,507.0
39038.00000000001,508.0
39039.0,507.0
39040.0,507.0
39041.00000000001,508.0
39042.0,513.0
39043.0,513.0
39044.00000000001,520.0
39045.0,505.0
39046.0,512.0
39047.00000000001,514.0
39048.0,510.0
39049.0,511.0
39050.00000000001,509.0
39051.0,503.0
39052.0,508.0
39053.0,502.0
39054.0,508.0
39055.0,499.0
39056.0,505.0
39057.0,508.0
39058.0,512.0
39059.0,513.0
39060.0,507.0
39061.0,511.0
39062.0,508.0
39063.0,515.0
39064.0,509.0
39065.0,512.0
39066.0,513.0
39067.0,508.0
39068.0,509.0
39069.0,509.0
39070.0,499.0
39071.0,499.0
39072.0,495.0
39073.0,506.0
39074.0,511.0
39075.0,507.0
39076.0,508.0
39077.0,516.0
39078.0,515.0
39079.0,516.0
39080.0,520.0
39081.0,508.0
39082.0,509.0
39083.0,512.0
39084.0,502.0
39085.0,507.0
39086.0,509.0
39087.0,508.0
39088.0,488.0
39089.0,500.0
39090.0,512.0
39091.0,512.0
39092.0,513.0
39093.0,513.0
39094.0,518.0
39095.0,511.0
39096.0,513.0
39097.0,518.0
39098.0,517.0
39099.00000000001,510.0
39100.0,505.0
39101.0,511.0
39102.00000000001,497.0
39103.0,497.0
39104.0,502.0
39105.00000000001,490.0
39106.0,510.0
39107.0,511.0
39108.00000000001,507.0
39109.0,513.0
39110.0,521.0
39111.00000000001,515.0
39112.0,511.0
39113.0,518.0
39114.00000000001,512.0
39115.0,514.0
39116.0,508.0
39117.0,509.0
39118.0,502.0
39119.0,508.0
39120.0,502.0
39121.0,499.0
39122.0,506.0
39123.0,504.0
39124.0,506.0
39125.0,511.0
39126.0,511.0
39127.0,514.0
39128.0,511.0
39129.0,515.0
39130.0,520.0
39131.0,509.0
39132.0,509.0
39133.0,514.0
39134.0,514.0
39135.0,502.0
39136.0,503.0
39137.0,502.0
39138.0,506.0
39139.0,503.0
39140.0,504.0
39141.0,501.0
39142.0,504.0
39143.0,514.0
39144.0,520.0
39145.0,508.0
39146.0,513.0
39147.0,515.0
39148.0,512.0
39149.0,511.0
39150.0,507.0
39151.0,511.0
39152.0,507.0
39153.0,504.0
39154.0,507.0
39155.0,495.0
39156.0,508.0
39157.0,506.0
39158.0,509.0
39159.0,510.0
39160.00000000001,522.0
39161.0,518.0
39162.0,513.0
39163.00000000001,512.0
39164.0,515.0
39165.0,507.0
39166.00000000001,511.0
39167.0,510.0
39168.0,497.0
39169.00000000001,510.0
39170.0,502.0
39171.0,497.0
39172.00000000001,498.0
39173.0,509.0
39174.0,516.0
39175.00000000001,511.0
39176.0,505.0
39177.0,507.0
39178.0,517.0
39179.0,519.0
39180.0,512.0
39181.0,508.0
39182.0,505.0
39183.0,505.0
39184.0,512.0
39185.0,502.0
39186.0,503.0
39187.0,510.0
39188.0,505.0
39189.0,506.0
39190.0,508.0
39191.0,505.0
39192.0,513.0
39193.0,518.0
39194.0,514.0
39195.0,511.0
39196.0,512.0
39197.0,507.0
39198.0,513.0
39199.0,511.0
39200.0,510.0
39201.0,504.0
39202.0,505.0
39203.0,507.0
39204.0,506.0
39205.0,501.0
39206.0,506.0
39207.0,511.0
39208.0,510.0
39209.0,515.0
39210.0,516.0
39211.0,516.0
39212.0,511.0
39213.0,510.0
39214.0,508.0
39215.0,513.0
39216.0,512.0
39217.0,511.0
39218.0,501.0
39219.0,503.0
39220.0,505.0
39221.0,497.0
39222.0,499.0
39223.0,499.0
39224.00000000001,507.0
39225.0,516.0
39226.0,517.0
39227.00000000001,515.0
39228.0,508.0
39229.0,521.0
39230.00000000001,519.0
39231.0,509.0
39232.0,512.0
39233.00000000001,507.0
39234.0,511.0
39235.0,502.0
39236.00000000001,506.0
39237.0,507.0
39238.0,501.0
39239.00000000001,500.0
39240.0,509.0
39241.0,510.0
39242.0,505.0
39243.0,513.0
39244.0,515.0
39245.0,505.0
39246.0,515.0
39247.0,515.0
39248.0,515.0
39249.0,507.0
39250.0,512.0
39251.0,508.0
39252.0,500.0
39253.0,502.0
39254.0,501.0
39255.0,501.0
39256.0,507.0
39257.0,509.0
39258.0,509.0
39259.0,511.0
39260.0,512.0
39261.0,512.0
39262.0,515.0
39263.0,519.0
39264.0,518.0
39265.0,501.0
39266.0,514.0
39267.0,512.0
39268.0,496.0
39269.0,501.0
39270.0,503.0
39271.0,503.0
39272.0,497.0
39273.0,503.0
39274.0,510.0
39275.0,512.0
39276.0,512.0
39277.0,511.0
39278.0,510.0
39279.0,508.0
39280.0,519.0
39281.0,511.0
39282.0,505.0
39283.0,514.0
39284.0,510.0
39285.00000000001,503.0
39286.0,504.0
39287.0,509.0
39288.00000000001,498.0
39289.0,504.0
39290.0,502.0
39291.00000000001,503.0
39292.0,516.0
39293.0,516.0
39294.00000000001,516.0
39295.0,505.0
39296.0,513.0
39297.00000000001,511.0
39298.0,512.0
39299.0,511.0
39300.00000000001,512.0
39301.0,511.0
39302.0,502.0
39303.0,504.0
39304.0,504.0
39305.0,500.0
39306.0,496.0
39307.0,506.0
39308.0,511.0
39309.0,514.0
39310.0,514.0
39311.0,520.0
39312.0,510.0
39313.0,511.0
39314.0,513.0
39315.0,514.0
39316.0,516.0
39317.0,500.0
39318.0,505.0
39319.0,506.0
39320.0,498.0
39321.0,496.0
39322.0,500.0
39323.0,508.0
39324.0,506.0
39325.0,518.0
39326.0,512.0
39327.0,512.0
39328.0,510.0
39329.0,506.0
39330.0,514.0
39331.0,516.0
39332.0,499.0
39333.0,518.0
39334.0,511.0
39335.0,496.0
39336.0,499.0
39337.0,510.0
39338.0,501.0
39339.0,503.0
39340.0,508.0
39341.0,505.0
39342.0,513.0
39343.0,512.0
39344.0,512.0
39345.0,516.0
39346.0,513.0
39347.0,515.0
39348.0,514.0
39349.00000000001,515.0
39350.0,508.0
39351.0,504.0
39352.00000000001,503.0
39353.0,508.0
39354.0,500.0
39355.00000000001,502.0
39356.0,505.0
39357.0,507.0
39358.00000000001,506.0
39359.0,510.0
39360.0,518.0
39361.00000000001,516.0
39362.0,511.0
39363.0,517.0
39364.00000000001,515.0
39365.0,507.0
39366.0,511.0
39367.0,510.0
39368.0,506.0
39369.0,502.0
39370.0,497.0
39371.0,498.0
39372.0,504.0
39373.0,509.0
39374.0,519.0
39375.0,508.0
39376.0,509.0
39377.0,516.0
39378.0,508.0
39379.0,514.0
39380.0,517.0
39381.0,515.0
39382.0,515.0
39383.0,511.0
39384.0,508.0
39385.0,499.0
39386.0,504.0
39387.0,508.0
39388.0,501.0
39389.0,502.0
39390.0,503.0
39391.0,511.0
39392.0,508.0
39393.0,515.0
39394.0,513.0
39395.0,511.0
39396.0,513.0
39397.0,518.0
39398.0,515.0
39399.0,511.0
39400.0,511.0
39401.0,511.0
39402.0,504.0
39403.0,515.0
39404.0,510.0
39405.0,494.0
39406.0,507.0
39407.0,503.0
39408.0,508.0
39409.0,517.0
39410.00000000001,513.0
39411.0,513.0
39412.0,516.0
39413.00000000001,519.0
39414.0,517.0
39415.0,504.0
39416.00000000001,513.0
39417.0,507.0
39418.0,500.0
39419.00000000001,504.0
39420.0,500.0
39421.0,502.0
39422.00000000001,497.0
39423.0,505.0
39424.0,509.0
39425.00000000001,510.0
39426.0,513.0
39427.0,512.0
39428.0,511.0
39429.0,512.0
39430.0,516.0
39431.0,503.0
39432.0,511.0
39433.0,518.0
39434.0,506.0
39435.0,506.0
39436.0,506.0
39437.0,506.0
39438.0,507.0
39439.0,500.0
39440.0,501.0
39441.0,498.0
39442.0,513.0
39443.0,518.0
39444.0,517.0
39445.0,510.0
39446.0,517.0
39447.0,507.0
39448.0,507.0
39449.0,515.0
39450.0,511.0
39451.0,508.0
39452.0,511.0
39453.0,504.0
39454.0,498.0
39455.0,497.0
39456.0,509.0
39457.0,509.0
39458.0,505.0
39459.0,513.0
39460.0,524.0
39461.0,517.0
39462.0,505.0
39463.0,512.0
39464.0,515.0
39465.0,501.0
39466.0,507.0
39467.0,512.0
39468.0,504.0
39469.0,500.0
39470.0,505.0
39471.0,500.0
39472.0,499.0
39473.0,504.0
39474.00000000001,517.0
39475.0,512.0
39476.0,515.0
39477.00000000001,518.0
39478.0,511.0
39479.0,506.0
39480.00000000001,515.0
39481.0,512.0
39482.0,504.0
39483.00000000001,515.0
39484.0,506.0
39485.0,505.0
39486.00000000001,503.0
39487.0,508.0
39488.0,505.0
39489.00000000001,505.0
39490.0,509.0
39491.0,506.0
39492.0,506.0
39493.0,514.0
39494.0,514.0
39495.0,507.0
39496.0,516.0
39497.0,516.0
39498.0,514.0
39499.0,515.0
39500.0,500.0
39501.0,511.0
39502.0,505.0
39503.0,508.0
39504.0,503.0
39505.0,498.0
39506.0,506.0
39507.0,511.0
39508.0,504.0
39509.0,511.0
39510.0,511.0
39511.0,516.0
39512.0,509.0
39513.0,517.0
39514.0,518.0
39515.0,505.0
39516.0,518.0
39517.0,511.0
39518.0,502.0
39519.0,500.0
39520.0,501.0
39521.0,511.0
39522.0,500.0
39523.0,506.0
39524.0,507.0
39525.0,510.0
39526.0,519.0
39527.0,516.0
39528.0,510.0
39529.0,506.0
39530.0,514.0
39531.0,515.0
39532.0,507.0
39533.0,511.0
39534.0,504.0
39535.00000000001,502.0
39536.0,502.0
39537.0,508.0
39538.00000000001,503.0
39539.0,511.0
39540.0,508.0
39541.00000000001,509.0
39542.0,506.0
39543.0,519.0
39544.00000000001,523.0
39545.0,509.0
39546.0,513.0
39547.00000000001,514.0
39548.0,508.0
39549.0,516.0
39550.00000000001,510.0
39551.0,506.0
39552.0,504.0
39553.0,505.0
39554.0,499.0
39555.0,494.0
39556.0,504.0
39557.0,509.0
39558.0,507.0
39559.0,511.0
39560.0,519.0
39561.0,516.0
39562.0,519.0
39563.0,507.0
39564.0,516.0
39565.0,516.0
39566.0,510.0
39567.0,507.0
39568.0,502.0
39569.0,506.0
39570.0,507.0
39571.0,499.0
39572.0,500.0
39573.0,507.0
39574.0,504.0
39575.0,508.0
39576.0,516.0
39577.0,524.0
39578.0,515.0
39579.0,507.0
39580.0,509.0
39581.0,511.0
39582.0,509.0
39583.0,511.0
39584.0,507.0
39585.0,509.0
39586.0,506.0
39587.0,509.0
39588.0,499.0
39589.0,503.0
39590.0,512.0
39591.0,510.0
39592.0,512.0
39593.0,513.0
39594.0,509.0
39595.0,515.0
39596.0,515.0
39597.0,513.0
39598.0,516.0
39599.00000000001,507.0
39600.0,506.0
39601.0,513.0
39602.00000000001,505.0
39603.0,496.0
39604.0,500.0
39605.00000000001,502.0
39606.0,501.0
39607.0,511.0
39608.00000000001,512.0
39609.0,516.0
39610.0,516.0
39611.00000000001,508.0
39612.0,519.0
39613.0,512.0
39614.00000000001,515.0
39615.0,508.0
39616.0,506.0
39617.0,504.0
39618.0,504.0
39619.0,508.0
39620.0,508.0
39621.0,497.0
39622.0,502.0
39623.0,505.0
39624.0,512.0
39625.0,506.0
39626.0,510.0
39627.0,514.0
39628.0,515.0
39629.0,515.0
39630.0,512.0
39631.0,499.0
39632.0,514.0
39633.0,515.0
39634.0,511.0
39635.0,495.0
39636.0,504.0
39637.0,513.0
39638.0,498.0
39639.0,504.0
39640.0,505.0
39641.0,503.0
39642.0,510.0
39643.0,515.0
39644.0,512.0
39645.0,518.0
39646.0,514.0
39647.0,512.0
39648.0,508.0
39649.0,514.0
39650.0,511.0
39651.0,504.0
39652.0,508.0
39653.0,504.0
39654.0,501.0
39655.0,499.0
39656.0,502.0
39657.0,505.0
39658.0,512.0
39659.0,513.0
39660.00000000001,511.0
39661.0,513.0
39662.0,512.0
39663.00000000001,513.0
39664.0,516.0
39665.0,514.0
39666.00000000001,512.0
39667.0,510.0
39668.0,510.0
39669.00000000001,506.0
39670.0,501.0
39671.0,503.0
39672.00000000001,496.0
39673.0,509.0
39674.0,504.0
39675.00000000001,513.0
39676.0,511.0
39677.0,513.0
39678.00000000001,511.0
39679.0,512.0
39680.0,518.0
39681.0,511.0
39682.0,514.0
39683.0,516.0
39684.0,505.0
39685.0,502.0
39686.0,496.0
39687.0,505.0
39688.0,496.0
39689.0,506.0
39690.0,502.0
39691.0,511.0
39692.0,523.0
39693.0,516.0
39694.0,517.0
39695.0,511.0
39696.0,510.0
39697.0,516.0
39698.0,504.0
39699.0,509.0
39700.0,519.0
39701.0,502.0
39702.0,497.0
39703.0,502.0
39704.0,509.0
39705.0,496.0
39706.0,500.0
39707.0,509.0
39708.0,511.0
39709.0,512.0
39710.0,511.0
39711.0,515.0
39712.0,512.0
39713.0,513.0
39714.0,517.0
39715.0,511.0
39716.0,507.0
39717.0,512.0
39718.0,507.0
39719.0,505.0
39720.0,497.0
39721.0,496.0
39722.0,503.0
39723.0,502.0
39724.00000000001,507.0
39725.0,512.0
39726.0,514.0
39727.00000000001,516.0
39728.0,516.0
39729.0,508.0
39730.00000000001,520.0
39731.0,519.0
39732.0,510.0
39733.00000000001,513.0
39734.0,505.0
39735.0,494.0
39736.00000000001,497.0
39737.0,498.0
39738.0,498.0
39739.00000000001,505.0
39740.0,508.0
39741.0,516.0
39742.0,510.0
39743.0,516.0
39744.0,512.0
39745.0,507.0
39746.0,514.0
39747.0,510.0
39748.0,508.0
39749.0,504.0
39750.0,512.0
39751.0,513.0
39752.0,506.0
39753.0,508.0
39754.0,505.0
39755.0,496.0
39756.0,509.0
39757.0,507.0
39758.0,507.0
39759.0,507.0
39760.0,516.0
39761.0,513.0
39762.0,514.0
39763.0,516.0
39764.0,508.0
39765.0,514.0
39766.0,513.0
39767.0,504.0
39768.0,504.0
39769.0,513.0
39770.0,507.0
39771.0,500.0
39772.0,498.0
39773.0,500.0
39774.0,513.0
39775.0,508.0
39776.0,508.0
39777.0,517.0
39778.0,519.0
39779.0,511.0
39780.0,511.0
39781.0,507.0
39782.0,508.0
39783.0,523.0
39784.0,509.0
39785.00000000001,498.0
39786.0,510.0
39787.0,504.0
39788.00000000001,499.0
39789.0,504.0
39790.0,504.0
39791.00000000001,503.0
39792.0,511.0
39793.0,512.0
39794.00000000001,522.0
39795.0,513.0
39796.0,514.0
39797.00000000001,516.0
39798.0,511.0
39799.0,506.0
39800.00000000001,511.0
39801.0,509.0
39802.0,502.0
39803.00000000001,507.0
39804.0,504.0
39805.0,506.0
39806.0,505.0
39807.0,512.0
39808.0,511.0
39809.0,514.0
39810.0,513.0
39811.0,513.0
39812.0,511.0
39813.0,511.0
39814.0,516.0
39815.0,511.0
39816.0,514.0
39817.0,506.0
39818.0,503.0
39819.0,505.0
39820.0,500.0
39821.0,509.0
39822.0,496.0
39823.0,506.0
39824.0,507.0
39825.0,506.0
39826.0,511.0
39827.0,519.0
39828.0,516.0
39829.0,515.0
39830.0,516.0
39831.0,510.0
39832.0,504.0
39833.0,510.0
39834.0,514.0
39835.0,508.0
39836.0,499.0
39837.0,500.0
39838.0,495.0
39839.0,504.0
39840.0,512.0
39841.0,511.0
39842.0,516.0
39843.0,515.0
39844.0,516.0
39845.0,512.0
39846.0,509.0
39847.0,514.0
39848.0,508.0
39849.00000000001,508.0
39850.0,519.0
39851.0,506.0
39852.00000000001,505.0
39853.0,498.0
39854.0,502.0
39855.00000000001,498.0
39856.0,507.0
39857.0,509.0
39858.00000000001,515.0
39859.0,516.0
39860.0,519.0
39861.00000000001,514.0
39862.0,516.0
39863.0,507.0
39864.00000000001,513.0
39865.0,502.0
39866.0,510.0
39867.0,506.0
39868.0,512.0
39869.0,507.0
39870.0,506.0
39871.0,502.0
39872.0,500.0
39873.0,507.0
39874.0,503.0
39875.0,511.0
39876.0,510.0
39877.0,516.0
39878.0,517.0
39879.0,512.0
39880.0,515.0
39881.0,511.0
39882.0,509.0
39883.0,511.0
39884.0,511.0
39885.0,500.0
39886.0,499.0
39887.0,504.0
39888.0,502.0
39889.0,504.0
39890.0,511.0
39891.0,503.0
39892.0,514.0
39893.0,511.0
39894.0,519.0
39895.0,510.0
39896.0,514.0
39897.0,509.0
39898.0,516.0
39899.0,512.0
39900.0,505.0
39901.0,503.0
39902.0,513.0
39903.0,504.0
39904.0,504.0
39905.0,498.0
39906.0,495.0
39907.0,508.0
39908.0,512.0
39909.0,514.0
39910.00000000001,514.0
39911.0,512.0
39912.0,511.0
39913.00000000001,511.0
39914.0,514.0
39915.0,514.0
39916.00000000001,512.0
39917.0,504.0
39918.0,507.0
39919.00000000001,508.0
39920.0,505.0
39921.0,503.0
39922.00000000001,498.0
39923.0,502.0
39924.0,500.0
39925.00000000001,506.0
39926.0,509.0
39927.0,512.0
39928.00000000001,519.0
39929.0,514.0
39930.0,515.0
39931.0,509.0
39932.0,506.0
39933.0,514.0
39934.0,506.0
39935.0,500.0
39936.0,497.0
39937.0,508.0
39938.0,502.0
39939.0,503.0
39940.0,505.0
39941.0,510.0
39942.0,515.0
39943.0,513.0
39944.0,518.0
39945.0,517.0
39946.0,522.0
39947.0,515.0
39948.0,508.0
39949.0,510.0
39950.0,506.0
39951.0,504.0
39952.0,496.0
39953.0,505.0
39954.0,500.0
39955.0,502.0
39956.0,508.0
39957.0,505.0
39958.0,511.0
39959.0,510.0
39960.0,514.0
39961.0,519.0
39962.0,511.0
39963.0,518.0
39964.0,511.0
39965.0,508.0
39966.0,512.0
39967.0,504.0
39968.0,511.0
39969.0,496.0
39970.0,509.0
39971.0,498.0
39972.0,499.0
39973.0,511.0
39974.00000000001,512.0
39975.0,515.0
39976.0,518.0
39977.00000000001,515.0
39978.0,508.0
39979.0,508.0
39980.00000000001,510.0
39981.0,508.0
39982.0,514.0
39983.00000000001,511.0
39984.0,508.0
39985.0,501.0
39986.00000000001,505.0
39987.0,506.0
39988.0,504.0
39989.00000000001,495.0
39990.0,504.0
39991.0,511.0
39992.0,515.0
39993.0,513.0
39994.0,517.0
39995.0,511.0
39996.0,512.0
39997.0,515.0
39998.0,512.0
39999.0,504.0
