tiempo,valor
26000.0,507.0
26001.0,502.0
26002.0,497.0
26003.0,506.0
26004.0,504.0
26005.0,513.0
26006.0,512.0
26007.0,514.0
26008.0,509.0
26009.0,509.0
26010.0,512.0
26011.0,519.0
26012.0,508.0
26013.0,505.0
26014.0,508.0
26015.0,511.0
26016.0,506.0
26017.0,506.0
26018.0,504.0
26019.000000000004,499.0
26020.0,504.0
26021.0,500.0
26022.000000000004,509.0
26023.0,516.0
26024.0,511.0
26025.000000000004,513.0
26026.0,514.0
26027.0,528.0
26028.000000000004,514.0
26029.0,511.0
26030.0,510.0
26031.0,515.0
26032.0,504.0
26033.0,496.0
26034.0,506.0
26035.0,505.0
26036.0,505.0
26037.0,503.0
26038.0,508.0
26039.0,504.0
26040.0,515.0
26041.0,511.0
26042.0,518.0
26043.0,514.0
26044.0,508.0
26045.0,511.0
26046.0,508.0
26047.0,510.0
26048.0,510.0
26049.0,505.0
26050.0,506.0
26051.000000000004,505.0
26052.0,500.0
26053.0,502.0
26054.000000000004,507.0
26055.0,513.0
26056.0,507.0
26057.000000000004,515.0
26058.0,520.0
26059.0,517.0
26060.000000000004,504.0
26061.0,512.0
26062.0,507.0
26063.0,513.0
26064.0,514.0
26065.0,509.0
26066.0,504.0
26067.0,502.0
26068.0,505.0
26069.0,494.0
26070.0,505.0
26071.0,516.0
26072.0,506.0
26073.0,511.0
26074.0,509.0
26075.0,517.0
26076.0,516.0
26077.0,513.0
26078.0,520.0
26079.0,510.0
26080.000000000004,506.0
26081.0,509.0
26082.0,501.0
26083.000000000004,502.0
26084.0,497.0
26085.0,503.0
26086.000000000004,504.0
26087.0,499.0
26088.0,507.0
26089.000000000004,514.0
26090.0,509.0
26091.0,518.0
26092.000000000004,512.0
26093.0,506.0
26094.0,510.0
26095.0,511.0
26096.0,509.0
26097.0,510.0
26098.0,513.0
26099.0,504.0
26100.0,508.0
26101.0,502.0
26102.0,509.0
26103.0,501.0
26104.0,506.0
26105.0,503.0
26106.0,504.0
26107.0,514.0
26108.0,509.0
26109.0,510.0
26110.0,517.0
26111.0,514.0
26112.000000000004,512.0
26113.0,511.0
26114.0,519.0
26115.000000000004,507.0
26116.0,497.0
26117.0,502.0
26118.000000000004,507.0
26119.0,500.0
26120.0,506.0
26121.000000000004,508.0
26122.0,517.0
26123.0,510.0
26124.0,512.0
26125.0,511.0
26126.0,509.0
26127.0,513.0
26128.0,511.0
26129.0,518.0
26130.0,514.0
26131.0,507.0
26132.0,512.0
26133.0,498.0
26134.0,503.0
26135.0,506.0
26136.0,509.0
26137.0,506.0
26138.0,508.0
26139.0,517.0
26140.0,515.0
26141.0,514.0
26142.0,507.0
26143.0,512.0
26144.000000000004,520.0
26145.0,513.0
26146.0,504.0
26147.000000000004,511.0
26148.0,508.0
26149.0,499.0
26150.000000000004,500.0
26151.0,505.0
26152.0,499.0
26153.000000000004,505.0
26154.0,512.0
26155.0,510.0
26156.0,512.0
26157.0,513.0
26158.0,513.0
26159.0,512.0
26160.0,510.0
26161.0,518.0
26162.0,511.0
26163.0,504.0
26164.0,510.0
26165.0,500.0
26166.0,502.0
26167.0,505.0
26168.0,502.0
26169.0,500.0
26170.0,511.0
26171.0,503.0
26172.0,508.0
26173.0,512.0
26174.0,513.0
26175.0,515.0
26176.000000000004,519.0
26177.0,516.0
26178.0,504.0
26179.000000000004,508.0
26180.0,515.0
26181.0,507.0
26182.000000000004,509.0
26183.0,506.0
26184.0,500.0
26185.000000000004,502.0
26186.0,504.0
26187.0,505.0
26188.0,511.0
26189.0,503.0
26190.0,509.0
26191.0,517.0
26192.0,510.0
26193.0,516.0
26194.0,512.0
26195.0,510.0
26196.0,508.0
26197.0,512.0
26198.0,507.0
26199.0,505.0
26200.0,506.0
26201.0,502.0
26202.0,503.0
26203.0,509.0
26204.0,513.0
26205.000000000004,506.0
26206.0,511.0
26207.0,511.0
26208.000000000004,511.0
26209.0,505.0
26210.0,515.0
26211.000000000004,513.0
26212.0,503.0
26213.0,517.0
26214.000000000004,509.0
26215.0,503.0
26216.0,502.0
26217.000000000004,508.0
26218.0,508.0
26219.0,501.0
26220.0,507.0
26221.0,513.0
26222.0,512.0
26223.0,509.0
26224.0,516.0
26225.0,519.0
26226.0,513.0
26227.0,515.0
26228.0,508.0
26229.0,505.0
26230.0,512.0
26231.0,507.0
26232.0,505.0
26233.0,504.0
26234.0,513.0
26235.0,502.0
26236.0,495.0
26237.000000000004,507.0
26238.0,507.0
26239.0,513.0
26240.000000000004,515.0
26241.0,518.0
26242.0,508.0
26243.000000000004,512.0
26244.0,513.0
26245.0,515.0
26246.000000000004,508.0
26247.0,505.0
26248.0,512.0
26249.0,501.0
26250.0,503.0
26251.0,508.0
26252.0,507.0
26253.0,503.0
26254.0,502.0
26255.0,511.0
26256.0,514.0
26257.0,514.0
26258.0,511.0
26259.0,513.0
26260.0,509.0
26261.0,518.0
26262.0,508.0
26263.0,507.0
26264.0,514.0
26265.0,510.0
26266.0,499.0
26267.0,505.0
26268.0,503.0
26269.000000000004,498.0
26270.0,504.0
26271.0,505.0
26272.000000000004,512.0
26273.0,512.0
26274.0,509.0
26275.000000000004,517.0
26276.0,511.0
26277.0,518.0
26278.000000000004,514.0
26279.0,509.0
26280.0,516.0
26281.0,500.0
26282.0,504.0
26283.0,503.0
26284.0,499.0
26285.0,499.0
26286.0,504.0
26287.0,513.0
26288.0,511.0
26289.0,510.0
26290.0,511.0
26291.0,515.0
26292.0,505.0
26293.0,510.0
26294.0,512.0
26295.0,514.0
26296.0,508.0
26297.0,510.0
26298.0,510.0
26299.0,501.0
26300.0,501.0
26301.000000000004,508.0
26302.0,498.0
26303.0,503.0
26304.000000000004,513.0
26305.0,508.0
26306.0,511.0
26307.000000000004,510.0
26308.0,513.0
26309.0,507.0
26310.000000000004,518.0
26311.0,509.0
26312.0,518.0
26313.0,504.0
26314.0,510.0
26315.0,507.0
26316.0,499.0
26317.0,502.0
26318.0,507.0
26319.0,502.0
26320.0,512.0
26321.0,509.0
26322.0,516.0
26323.0,507.0
26324.0,513.0
26325.0,516.0
26326.0,516.0
26327.0,510.0
26328.0,507.0
26329.0,507.0
26330.000000000004,512.0
26331.0,506.0
26332.0,507.0
26333.000000000004,501.0
26334.0,507.0
26335.0,497.0
26336.000000000004,497.0
26337.0,504.0
26338.0,507.0
26339.000000000004,508.0
26340.0,521.0
26341.0,512.0
26342.000000000004,513.0
26343.0,514.0
26344.0,516.0
26345.0,517.0
26346.0,495.0
26347.0,512.0
26348.0,510.0
26349.0,499.0
26350.0,505.0
26351.0,504.0
26352.0,498.0
26353.0,502.0
26354.0,511.0
26355.0,508.0
26356.0,510.0
26357.0,512.0
26358.0,514.0
26359.0,507.0
26360.0,520.0
26361.0,515.0
26362.000000000004,505.0
26363.0,504.0
26364.0,505.0
26365.000000000004,512.0
26366.0,509.0
26367.0,510.0
26368.000000000004,506.0
26369.0,501.0
26370.0,502.0
26371.000000000004,513.0
26372.0,512.0
26373.0,503.0
26374.0,510.0
26375.0,511.0
26376.0,511.0
26377.0,517.0
26378.0,517.0
26379.0,511.0
26380.0,509.0
26381.0,505.0
26382.0,502.0
26383.0,501.0
26384.0,499.0
26385.0,504.0
26386.0,504.0
26387.0,508.0
26388.0,519.0
26389.0,508.0
26390.0,516.0
26391.0,517.0
26392.0,521.0
26393.0,508.0
26394.000000000004,506.0
26395.0,513.0
26396.0,508.0
26397.000000000004,509.0
26398.0,511.0
26399.0,506.0
26400.000000000004,500.0
26401.0,499.0
26402.0,499.0
26403.000000000004,506.0
26404.0,511.0
26405.0,510.0
26406.0,513.0
26407.0,506.0
26408.0,513.0
26409.0,507.0
26410.0,513.0
26411.0,511.0
26412.0,499.0
26413.0,514.0
26414.0,509.0
26415.0,506.0
26416.0,505.0
26417.0,504.0
26418.0,499.0
26419.0,498.0
26420.0,506.0
26421.0,512.0
26422.0,515.0
26423.0,512.0
26424.0,514.0
26425.0,518.0
26426.000000000004,508.0
26427.0,515.0
26428.0,515.0
26429.000000000004,501.0
26430.0,510.0
26431.0,506.0
26432.000000000004,504.0
26433.0,501.0
26434.0,504.0
26435.000000000004,503.0
26436.0,505.0
26437.0,511.0
26438.0,505.0
26439.0,510.0
26440.0,514.0
26441.0,515.0
26442.0,512.0
26443.0,512.0
26444.0,516.0
26445.0,514.0
26446.0,507.0
26447.0,512.0
26448.0,509.0
26449.0,491.0
26450.0,500.0
26451.0,512.0
26452.0,507.0
26453.0,503.0
26454.0,505.0
26455.000000000004,503.0
26456.0,509.0
26457.0,517.0
26458.000000000004,517.0
26459.0,511.0
26460.0,516.0
26461.000000000004,510.0
26462.0,513.0
26463.0,512.0
26464.000000000004,506.0
26465.0,503.0
26466.0,504.0
26467.000000000004,504.0
26468.0,510.0
26469.0,497.0
26470.0,505.0
26471.0,507.0
26472.0,508.0
26473.0,509.0
26474.0,509.0
26475.0,513.0
26476.0,511.0
26477.0,517.0
26478.0,516.0
26479.0,508.0
26480.0,515.0
26481.0,510.0
26482.0,506.0
26483.0,504.0
26484.0,506.0
26485.0,500.0
26486.0,505.0
26487.000000000004,505.0
26488.0,501.0
26489.0,514.0
26490.000000000004,520.0
26491.0,515.0
26492.0,513.0
26493.000000000004,509.0
26494.0,513.0
26495.0,518.0
26496.000000000004,514.0
26497.0,508.0
26498.0,505.0
26499.0,500.0
26500.0,503.0
26501.0,501.0
26502.0,504.0
26503.0,500.0
26504.0,511.0
26505.0,514.0
26506.0,509.0
26507.0,513.0
26508.0,517.0
26509.0,518.0
26510.0,515.0
26511.0,514.0
26512.0,508.0
26513.0,516.0
26514.0,505.0
26515.0,504.0
26516.0,505.0
26517.0,503.0
26518.0,500.0
26519.000000000004,494.0
26520.0,507.0
26521.0,510.0
26522.000000000004,512.0
26523.0,513.0
26524.0,513.0
26525.000000000004,512.0
26526.0,506.0
26527.0,509.0
26528.000000000004,511.0
26529.0,519.0
26530.0,508.0
26531.0,509.0
26532.0,508.0
26533.0,497.0
26534.0,507.0
26535.0,506.0
26536.0,503.0
26537.0,506.0
26538.0,507.0
26539.0,517.0
26540.0,515.0
26541.0,513.0
26542.0,516.0
26543.0,507.0
26544.0,509.0
26545.0,512.0
26546.0,504.0
26547.0,512.0
26548.0,507.0
26549.0,499.0
26550.0,508.0
26551.000000000004,511.0
26552.0,501.0
26553.0,502.0
26554.000000000004,507.0
26555.0,509.0
26556.0,513.0
26557.000000000004,514.0
26558.0,512.0
26559.0,508.0
26560.000000000004,508.0
26561.0,511.0
26562.0,519.0
26563.0,513.0
26564.0,513.0
26565.0,507.0
26566.0,502.0
26567.0,502.0
26568.0,505.0
26569.0,500.0
26570.0,506.0
26571.0,501.0
26572.0,512.0
26573.0,513.0
26574.0,512.0
26575.0,508.0
26576.0,508.0
26577.0,515.0
26578.0,513.0
26579.0,508.0
26580.000000000004,512.0
26581.0,512.0
26582.0,499.0
26583.000000000004,504.0
26584.0,504.0
26585.0,505.0
26586.000000000004,504.0
26587.0,503.0
26588.0,508.0
26589.000000000004,512.0
26590.0,514.0
26591.0,517.0
26592.000000000004,515.0
26593.0,515.0
26594.0,511.0
26595.0,513.0
26596.0,508.0
26597.0,505.0
26598.0,510.0
26599.0,506.0
26600.0,501.0
26601.0,501.0
26602.0,502.0
26603.0,504.0
26604.0,511.0
26605.0,513.0
26606.0,510.0
26607.0,518.0
26608.0,510.0
26609.0,508.0
26610.0,503.0
26611.0,512.0
26612.000000000004,512.0
26613.0,518.0
26614.0,510.0
26615.000000000004,509.0
26616.0,495.0
26617.0,505.0
26618.000000000004,499.0
26619.0,499.0
26620.0,510.0
26621.000000000004,521.0
26622.0,516.0
26623.0,514.0
26624.000000000004,515.0
26625.0,514.0
26626.0,502.0
26627.0,511.0
26628.0,511.0
26629.0,507.0
26630.0,513.0
26631.0,514.0
26632.0,502.0
26633.0,499.0
26634.0,511.0
26635.0,510.0
26636.0,505.0
26637.0,510.0
26638.0,509.0
26639.0,508.0
26640.0,511.0
26641.0,511.0
26642.0,508.0
26643.0,513.0
26644.000000000004,512.0
26645.0,507.0
26646.0,519.0
26647.000000000004,521.0
26648.0,508.0
26649.0,498.0
26650.000000000004,501.0
26651.0,510.0
26652.0,498.0
26653.000000000004,502.0
26654.0,511.0
26655.0,513.0
26656.0,511.0
26657.0,504.0
26658.0,512.0
26659.0,511.0
26660.0,516.0
26661.0,511.0
26662.0,512.0
26663.0,513.0
26664.0,511.0
26665.0,508.0
26666.0,508.0
26667.0,501.0
26668.0,505.0
26669.0,500.0
26670.0,508.0
26671.0,507.0
26672.0,517.0
26673.0,505.0
26674.0,516.0
26675.0,512.0
26676.000000000004,511.0
26677.0,524.0
26678.0,511.0
26679.000000000004,507.0
26680.0,506.0
26681.0,509.0
26682.000000000004,498.0
26683.0,501.0
26684.0,505.0
26685.000000000004,502.0
26686.0,502.0
26687.0,507.0
26688.0,505.0
26689.0,511.0
26690.0,512.0
26691.0,512.0
26692.0,512.0
26693.0,519.0
26694.0,514.0
26695.0,508.0
26696.0,511.0
26697.0,509.0
26698.0,511.0
26699.0,502.0
26700.0,505.0
26701.0,504.0
26702.0,500.0
26703.0,504.0
26704.0,513.0
26705.000000000004,513.0
26706.0,517.0
26707.0,516.0
26708.000000000004,509.0
26709.0,512.0
26710.0,511.0
26711.000000000004,504.0
26712.0,501.0
26713.0,512.0
26714.000000000004,511.0
26715.0,504.0
26716.0,502.0
26717.000000000004,508.0
26718.0,494.0
26719.0,507.0
26720.0,506.0
26721.0,510.0
26722.0,511.0
26723.0,516.0
26724.0,513.0
26725.0,515.0
26726.0,515.0
26727.0,519.0
26728.0,511.0
26729.0,504.0
26730.0,509.0
26731.0,513.0
26732.0,508.0
26733.0,503.0
26734.0,508.0
26735.0,500.0
26736.0,507.0
26737.000000000004,518.0
26738.0,512.0
26739.0,509.0
26740.000000000004,511.0
26741.0,511.0
26742.0,508.0
26743.000000000004,511.0
26744.0,514.0
26745.0,511.0
26746.000000000004,508.0
26747.0,509.0
26748.0,505.0
26749.000000000004,502.0
26750.0,506.0
26751.0,506.0
26752.0,502.0
26753.0,502.0
26754.0,507.0
26755.0,517.0
26756.0,519.0
26757.0,516.0
26758.0,520.0
26759.0,512.0
26760.0,503.0
26761.0,504.0
26762.0,508.0
26763.0,520.0
26764.0,509.0
26765.0,509.0
26766.0,505.0
26767.0,505.0
26768.0,508.0
26769.000000000004,502.0
26770.0,501.0
26771.0,503.0
26772.000000000004,506.0
26773.0,511.0
26774.0,515.0
26775.000000000004,509.0
26776.0,510.0
26777.0,519.0
26778.000000000004,518.0
26779.0,505.0
26780.0,510.0
26781.0,516.0
26782.0,503.0
26783.0,500.0
26784.0,500.0
26785.0,509.0
26786.0,501.0
26787.0,508.0
26788.0,507.0
26789.0,515.0
26790.0,513.0
26791.0,510.0
26792.0,510.0
26793.0,519.0
26794.0,512.0
26795.0,506.0
26796.0,510.0
26797.0,515.0
26798.0,503.0
26799.0,500.0
26800.0,513.0
26801.000000000004,510.0
26802.0,502.0
26803.0,502.0
26804.000000000004,511.0
26805.0,515.0
26806.0,512.0
26807.000000000004,521.0
26808.0,512.0
26809.0,512.0
26810.000000000004,511.0
26811.0,508.0
26812.0,515.0
26813.0,512.0
26814.0,511.0
26815.0,500.0
26816.0,500.0
26817.0,503.0
26818.0,500.0
26819.0,506.0
26820.0,506.0
26821.0,507.0
26822.0,513.0
26823.0,518.0
26824.0,519.0
26825.0,518.0
26826.0,508.0
26827.0,514.0
26828.0,509.0
26829.0,511.0
26830.000000000004,510.0
26831.0,512.0
26832.0,500.0
26833.000000000004,508.0
26834.0,505.0
26835.0,505.0
26836.000000000004,502.0
26837.0,507.0
26838.0,505.0
26839.000000000004,508.0
26840.0,514.0
26841.0,513.0
26842.000000000004,511.0
26843.0,512.0
26844.0,512.0
26845.0,513.0
26846.0,510.0
26847.0,509.0
26848.0,504.0
26849.0,507.0
26850.0,507.0
26851.0,504.0
26852.0,504.0
26853.0,502.0
26854.0,507.0
26855.0,507.0
26856.0,513.0
26857.0,516.0
26858.0,512.0
26859.0,513.0
26860.0,516.0
26861.0,508.0
26862.000000000004,509.0
26863.0,511.0
26864.0,514.0
26865.000000000004,501.0
26866.0,500.0
26867.0,505.0
26868.000000000004,502.0
26869.0,504.0
26870.0,508.0
26871.000000000004,514.0
26872.0,507.0
26873.0,509.0
26874.000000000004,517.0
26875.0,512.0
26876.0,510.0
26877.0,515.0
26878.0,508.0
26879.0,502.0
26880.0,513.0
26881.0,508.0
26882.0,500.0
26883.0,512.0
26884.0,508.0
26885.0,512.0
26886.0,498.0
26887.0,511.0
26888.0,511.0
26889.0,511.0
26890.0,516.0
26891.0,509.0
26892.0,513.0
26893.0,511.0
26894.000000000004,511.0
26895.0,515.0
26896.0,505.0
26897.000000000004,504.0
26898.0,507.0
26899.0,510.0
26900.000000000004,508.0
26901.0,508.0
26902.0,510.0
26903.000000000004,503.0
26904.0,507.0
26905.0,509.0
26906.0,510.0
26907.0,522.0
26908.0,512.0
26909.0,509.0
26910.0,519.0
26911.0,504.0
26912.0,507.0
26913.0,512.0
26914.0,504.0
26915.0,510.0
26916.0,501.0
26917.0,497.0
26918.0,502.0
26919.0,508.0
26920.0,511.0
26921.0,507.0
26922.0,507.0
26923.0,515.0
26924.0,517.0
26925.0,510.0
26926.000000000004,508.0
26927.0,509.0
26928.0,508.0
26929.000000000004,515.0
26930.0,510.0
26931.0,508.0
26932.000000000004,504.0
26933.0,505.0
26934.0,509.0
26935.000000000004,506.0
26936.0,504.0
26937.0,508.0
26938.0,513.0
26939.0,512.0
26940.0,512.0
26941.0,508.0
26942.0,513.0
26943.0,513.0
26944.0,512.0
26945.0,508.0
26946.0,511.0
26947.0,504.0
26948.0,504.0
26949.0,499.0
26950.0,509.0
26951.0,510.0
26952.0,500.0
26953.0,507.0
26954.0,508.0
26955.000000000004,511.0
26956.0,504.0
26957.0,520.0
26958.000000000004,512.0
26959.0,511.0
26960.0,513.0
26961.000000000004,513.0
26962.0,512.0
26963.0,510.0
26964.000000000004,510.0
26965.0,495.0
26966.0,502.0
26967.000000000004,506.0
26968.0,504.0
26969.0,503.0
26970.0,506.0
26971.0,511.0
26972.0,516.0
26973.0,509.0
26974.0,511.0
26975.0,512.0
26976.0,513.0
26977.0,510.0
26978.0,514.0
26979.0,508.0
26980.0,511.0
26981.0,504.0
26982.0,503.0
26983.0,508.0
26984.0,507.0
26985.0,507.0
26986.0,504.0
26987.000000000004,513.0
26988.0,514.0
26989.0,509.0
26990.000000000004,512.0
26991.0,500.0
26992.0,515.0
26993.000000000004,512.0
26994.0,512.0
26995.0,511.0
26996.000000000004,507.0
26997.0,513.0
26998.0,510.0
26999.000000000004,503.0
27000.0,503.0
27001.0,502.0
27002.0,504.0
27003.0,497.0
27004.0,510.0
27005.0,511.0
27006.0,511.0
27007.0,522.0
27008.0,512.0
27009.0,512.0
27010.0,514.0
27011.0,511.0
27012.0,509.0
27013.0,506.0
27014.0,509.0
27015.0,498.0
27016.0,507.0
27017.0,511.0
27018.0,498.0
27019.000000000004,504.0
27020.0,504.0
27021.0,512.0
27022.000000000004,515.0
27023.0,510.0
27024.0,504.0
27025.000000000004,510.0
27026.0,517.0
27027.0,512.0
27028.000000000004,515.0
27029.0,508.0
27030.0,513.0
27031.0,504.0
27032.0,504.0
27033.0,505.0
27034.0,517.0
27035.0,506.0
27036.0,497.0
27037.0,503.0
27038.0,510.0
27039.0,513.0
27040.0,511.0
27041.0,510.0
27042.0,507.0
27043.0,515.0
27044.0,516.0
27045.0,510.0
27046.0,509.0
27047.0,513.0
27048.0,505.0
27049.0,500.0
27050.0,501.0
27051.000000000004,497.0
27052.0,499.0
27053.0,504.0
27054.000000000004,510.0
27055.0,513.0
27056.0,508.0
27057.000000000004,521.0
27058.0,517.0
27059.0,509.0
27060.000000000004,513.0
27061.0,504.0
27062.0,507.0
27063.0,508.0
27064.0,506.0
27065.0,501.0
27066.0,503.0
27067.0,510.0
27068.0,502.0
27069.0,504.0
27070.0,508.0
27071.0,513.0
27072.0,510.0
27073.0,513.0
27074.0,512.0
27075.0,509.0
27076.0,515.0
27077.0,514.0
27078.0,512.0
27079.0,512.0
27080.000000000004,505.0
27081.0,513.0
27082.0,499.0
27083.000000000004,505.0
27084.0,504.0
27085.0,505.0
27086.000000000004,499.0
27087.0,507.0
27088.0,517.0
27089.000000000004,511.0
27090.0,524.0
27091.0,507.0
27092.000000000004,513.0
27093.0,510.0
27094.0,513.0
27095.0,508.0
27096.0,512.0
27097.0,507.0
27098.0,505.0
27099.0,502.0
27100.0,504.0
27101.0,503.0
27102.0,500.0
27103.0,508.0
27104.0,520.0
27105.0,513.0
27106.0,508.0
27107.0,512.0
27108.0,511.0
27109.0,516.0
27110.0,513.0
27111.0,512.0
27112.000000000004,502.0
27113.0,509.0
27114.0,506.0
27115.000000000004,499.0
27116.0,505.0
27117.0,499.0
27118.000000000004,504.0
27119.0,505.0
27120.0,515.0
27121.000000000004,513.0
27122.0,509.0
27123.0,507.0
27124.000000000004,507.0
27125.0,520.0
27126.0,515.0
27127.0,516.0
27128.0,509.0
27129.0,511.0
27130.0,508.0
27131.0,503.0
27132.0,499.0
27133.0,504.0
27134.0,498.0
27135.0,500.0
27136.0,503.0
27137.0,509.0
27138.0,512.0
27139.0,516.0
27140.0,515.0
27141.0,514.0
27142.0,516.0
27143.0,511.0
27144.000000000004,506.0
27145.0,513.0
27146.0,506.0
27147.000000000004,508.0
27148.0,505.0
27149.0,499.0
27150.000000000004,506.0
27151.0,508.0
27152.0,504.0
27153.000000000004,509.0
27154.0,510.0
27155.0,513.0
27156.0,502.0
27157.0,516.0
27158.0,519.0
27159.0,512.0
27160.0,513.0
27161.0,510.0
27162.0,509.0
27163.0,510.0
27164.0,508.0
27165.0,501.0
27166.0,506.0
27167.0,507.0
27168.0,498.0
27169.0,502.0
27170.0,505.0
27171.0,505.0
27172.0,504.0
27173.0,509.0
27174.0,516.0
27175.0,513.0
27176.000000000004,518.0
27177.0,521.0
27178.0,512.0
27179.000000000004,508.0
27180.0,511.0
27181.0,503.0
27182.000000000004,500.0
27183.0,505.0
27184.0,508.0
27185.000000000004,503.0
27186.0,506.0
27187.0,510.0
27188.0,515.0
27189.0,511.0
27190.0,512.0
27191.0,512.0
27192.0,510.0
27193.0,513.0
27194.0,508.0
27195.0,508.0
27196.0,507.0
27197.0,514.0
27198.0,502.0
27199.0,502.0
27200.0,508.0
27201.0,509.0
27202.0,499.0
27203.0,505.0
27204.0,513.0
27205.000000000004,514.0
27206.0,511.0
27207.0,521.0
27208.000000000004,515.0
27209.0,506.0
27210.0,510.0
27211.000000000004,515.0
27212.0,508.0
27213.0,505.0
27214.000000000004,509.0
27215.0,507.0
27216.0,501.0
27217.000000000004,501.0
27218.0,501.0
27219.0,508.0
27220.0,507.0
27221.0,513.0
27222.0,515.0
27223.0,510.0
27224.0,512.0
27225.0,512.0
27226.0,511.0
27227.0,515.0
27228.0,514.0
27229.0,510.0
27230.0,515.0
27231.0,510.0
27232.0,501.0
27233.0,508.0
27234.0,504.0
27235.0,496.0
27236.0,511.0
27237.000000000004,506.0
27238.0,509.0
27239.0,513.0
27240.000000000004,519.0
27241.0,518.0
27242.0,505.0
27243.000000000004,514.0
27244.0,513.0
27245.0,512.0
27246.000000000004,511.0
27247.0,510.0
27248.0,506.0
27249.000000000004,493.0
27250.0,504.0
27251.0,503.0
27252.0,502.0
27253.0,505.0
27254.0,510.0
27255.0,516.0
27256.0,508.0
27257.0,512.0
27258.0,517.0
27259.0,512.0
27260.0,514.0
27261.0,506.0
27262.0,508.0
27263.0,508.0
27264.0,511.0
27265.0,503.0
27266.0,503.0
27267.0,511.0
27268.0,513.0
27269.000000000004,508.0
27270.0,508.0
27271.0,508.0
27272.000000000004,504.0
27273.0,511.0
27274.0,513.0
27275.000000000004,508.0
27276.0,514.0
27277.0,515.0
27278.000000000004,513.0
27279.0,512.0
27280.0,505.0
27281.0,505.0
27282.0,500.0
27283.0,500.0
27284.0,503.0
27285.0,499.0
27286.0,504.0
27287.0,516.0
27288.0,505.0
27289.0,515.0
27290.0,516.0
27291.0,519.0
27292.0,513.0
27293.0,515.0
27294.0,514.0
27295.0,504.0
27296.0,511.0
27297.0,510.0
27298.0,505.0
27299.0,499.0
27300.0,512.0
27301.000000000004,504.0
27302.0,504.0
27303.0,506.0
27304.000000000004,508.0
27305.0,504.0
27306.0,515.0
27307.000000000004,516.0
27308.0,513.0
27309.0,509.0
27310.000000000004,515.0
27311.0,508.0
27312.0,504.0
27313.0,505.0
27314.0,512.0
27315.0,508.0
27316.0,507.0
27317.0,509.0
27318.0,500.0
27319.0,503.0
27320.0,508.0
27321.0,510.0
27322.0,510.0
27323.0,519.0
27324.0,518.0
27325.0,506.0
27326.0,511.0
27327.0,513.0
27328.0,512.0
27329.0,511.0
27330.000000000004,516.0
27331.0,499.0
27332.0,498.0
27333.000000000004,508.0
27334.0,510.0
27335.0,503.0
27336.000000000004,506.0
27337.0,516.0
27338.0,509.0
27339.000000000004,510.0
27340.0,518.0
27341.0,511.0
27342.000000000004,511.0
27343.0,519.0
27344.0,512.0
27345.0,511.0
27346.0,509.0
27347.0,504.0
27348.0,507.0
27349.0,503.0
27350.0,508.0
27351.0,502.0
27352.0,503.0
27353.0,502.0
27354.0,514.0
27355.0,512.0
27356.0,513.0
27357.0,510.0
27358.0,508.0
27359.0,514.0
27360.0,514.0
27361.0,511.0
27362.000000000004,515.0
27363.0,505.0
27364.0,505.0
27365.000000000004,503.0
27366.0,503.0
27367.0,511.0
27368.000000000004,504.0
27369.0,499.0
27370.0,509.0
27371.000000000004,512.0
27372.0,512.0
27373.0,514.0
27374.000000000004,512.0
27375.0,508.0
27376.0,518.0
27377.0,515.0
27378.0,513.0
27379.0,505.0
27380.0,514.0
27381.0,513.0
27382.0,503.0
27383.0,502.0
27384.0,504.0
27385.0,504.0
27386.0,509.0
27387.0,509.0
27388.0,512.0
27389.0,510.0
27390.0,509.0
27391.0,510.0
27392.0,509.0
27393.0,513.0
27394.000000000004,506.0
27395.0,513.0
27396.0,517.0
27397.000000000004,511.0
27398.0,509.0
27399.0,504.0
27400.000000000004,510.0
27401.0,500.0
27402.0,504.0
27403.000000000004,510.0
27404.0,506.0
27405.0,518.0
27406.0,506.0
27407.0,506.0
27408.0,512.0
27409.0,511.0
27410.0,514.0
27411.0,508.0
27412.0,505.0
27413.0,515.0
27414.0,511.0
27415.0,503.0
27416.0,504.0
27417.0,503.0
27418.0,505.0
27419.0,501.0
27420.0,514.0
27421.0,506.0
27422.0,512.0
27423.0,516.0
27424.0,516.0
27425.0,511.0
27426.000000000004,515.0
27427.0,510.0
27428.0,512.0
27429.000000000004,506.0
27430.0,509.0
27431.0,503.0
27432.000000000004,499.0
27433.0,505.0
27434.0,506.0
27435.000000000004,507.0
27436.0,511.0
27437.0,508.0
27438.0,501.0
27439.0,515.0
27440.0,515.0
27441.0,514.0
27442.0,511.0
27443.0,511.0
27444.0,512.0
27445.0,508.0
27446.0,515.0
27447.0,512.0
27448.0,507.0
27449.0,499.0
27450.0,499.0
27451.0,497.0
27452.0,508.0
27453.0,499.0
27454.0,505.0
27455.000000000004,511.0
27456.0,512.0
27457.0,516.0
27458.000000000004,521.0
27459.0,511.0
27460.0,518.0
27461.000000000004,509.0
27462.0,512.0
27463.0,517.0
27464.000000000004,511.0
27465.0,505.0
27466.0,505.0
27467.000000000004,510.0
27468.0,508.0
27469.0,497.0
27470.0,511.0
27471.0,505.0
27472.0,506.0
27473.0,518.0
27474.0,516.0
27475.0,510.0
27476.0,515.0
27477.0,516.0
27478.0,505.0
27479.0,507.0
27480.0,514.0
27481.0,514.0
27482.0,508.0
27483.0,509.0
27484.0,499.0
27485.0,502.0
27486.0,496.0
27487.000000000004,506.0
27488.0,518.0
27489.0,515.0
27490.000000000004,509.0
27491.0,516.0
27492.0,503.0
27493.000000000004,518.0
27494.0,504.0
27495.0,500.0
27496.000000000004,510.0
27497.0,510.0
27498.0,506.0
27499.000000000004,501.0
27500.0,510.0
27501.0,502.0
27502.0,508.0
27503.0,509.0
27504.0,518.0
27505.0,514.0
27506.0,509.0
27507.0,505.0
27508.0,506.0
27509.0,508.0
27510.0,515.0
27511.0,508.0
27512.0,512.0
27513.0,512.0
27514.0,511.0
27515.0,501.0
27516.0,505.0
27517.0,503.0
27518.0,497.0
27519.000000000004,497.0
27520.0,516.0
27521.0,511.0
27522.000000000004,503.0
27523.0,508.0
27524.0,518.0
27525.000000000004,518.0
27526.0,511.0
27527.0,508.0
27528.000000000004,504.0
27529.0,508.0
27530.0,506.0
27531.0,511.0
27532.0,505.0
27533.0,505.0
27534.0,510.0
27535.0,497.0
27536.0,502.0
27537.0,502.0
27538.0,516.0
27539.0,520.0
27540.0,513.0
27541.0,521.0
27542.0,510.0
27543.0,510.0
27544.0,515.0
27545.0,511.0
27546.0,509.0
27547.0,507.0
27548.0,501.0
27549.0,497.0
27550.0,505.0
27551.000000000004,502.0
27552.0,508.0
27553.0,505.0
27554.000000000004,505.0
27555.0,510.0
27556.0,508.0
27557.000000000004,519.0
27558.0,508.0
27559.0,511.0
27560.000000000004,514.0
27561.0,511.0
27562.0,504.0
27563.0,510.0
27564.0,512.0
27565.0,510.0
27566.0,506.0
27567.0,508.0
27568.0,500.0
27569.0,501.0
27570.0,513.0
27571.0,507.0
27572.0,512.0
27573.0,515.0
27574.0,515.0
27575.0,506.0
27576.0,509.0
27577.0,511.0
27578.0,503.0
27579.0,513.0
27580.000000000004,520.0
27581.0,505.0
27582.0,499.0
27583.000000000004,503.0
27584.0,508.0
27585.0,496.0
27586.000000000004,507.0
27587.0,512.0
27588.0,508.0
27589.000000000004,515.0
27590.0,515.0
27591.0,508.0
27592.000000000004,512.0
27593.0,517.0
27594.0,509.0
27595.0,508.0
27596.0,515.0
27597.0,513.0
27598.0,498.0
27599.0,510.0
27600.0,503.0
27601.0,500.0
27602.0,511.0
27603.0,507.0
27604.0,509.0
27605.0,510.0
27606.0,512.0
27607.0,520.0
27608.0,515.0
27609.0,506.0
27610.0,513.0
27611.0,515.0
27612.000000000004,507.0
27613.0,507.0
27614.0,507.0
27615.000000000004,503.0
27616.0,504.0
27617.0,504.0
27618.000000000004,496.0
27619.0,503.0
27620.0,506.0
27621.000000000004,505.0
27622.0,516.0
27623.0,521.0
27624.000000000004,518.0
27625.0,510.0
27626.0,509.0
27627.0,512.0
27628.0,508.0
27629.0,510.0
27630.0,510.0
27631.0,504.0
27632.0,507.0
27633.0,507.0
27634.0,510.0
27635.0,499.0
27636.0,506.0
27637.0,510.0
27638.0,508.0
27639.0,506.0
27640.0,514.0
27641.0,516.0
27642.0,508.0
27643.0,510.0
27644.000000000004,509.0
27645.0,513.0
27646.0,513.0
27647.000000000004,505.0
27648.0,504.0
27649.0,505.0
27650.000000000004,505.0
27651.0,510.0
27652.0,500.0
27653.000000000004,507.0
27654.0,503.0
27655.0,512.0
27656.0,512.0
27657.0,514.0
27658.0,509.0
27659.0,512.0
27660.0,518.0
27661.0,513.0
27662.0,506.0
27663.0,510.0
27664.0,505.0
27665.0,505.0
27666.0,503.0
27667.0,508.0
27668.0,503.0
27669.0,505.0
27670.0,503.0
27671.0,503.0
27672.0,511.0
27673.0,519.0
27674.0,516.0
27675.0,515.0
27676.000000000004,516.0
27677.0,515.0
27678.0,507.0
27679.000000000004,508.0
27680.0,507.0
27681.0,503.0
27682.000000000004,506.0
27683.0,501.0
27684.0,504.0
27685.000000000004,496.0
27686.0,505.0
27687.0,516.0
27688.0,508.0
27689.0,517.0
27690.0,516.0
27691.0,520.0
27692.0,508.0
27693.0,516.0
27694.0,511.0
27695.0,508.0
27696.0,515.0
27697.0,507.0
27698.0,502.0
27699.0,503.0
27700.0,497.0
27701.0,501.0
27702.0,501.0
27703.0,510.0
27704.0,508.0
27705.000000000004,502.0
27706.0,515.0
27707.0,514.0
27708.000000000004,515.0
27709.0,515.0
27710.0,516.0
27711.000000000004,506.0
27712.0,509.0
27713.0,508.0
27714.000000000004,507.0
27715.0,499.0
27716.0,506.0
27717.000000000004,509.0
27718.0,497.0
27719.0,510.0
27720.0,510.0
27721.0,511.0
27722.0,513.0
27723.0,515.0
27724.0,518.0
27725.0,506.0
27726.0,511.0
27727.0,511.0
27728.0,507.0
27729.0,508.0
27730.0,503.0
27731.0,509.0
27732.0,502.0
27733.0,509.0
27734.0,501.0
27735.0,497.0
27736.0,512.0
27737.000000000004,513.0
27738.0,510.0
27739.0,511.0
27740.000000000004,510.0
27741.0,517.0
27742.0,508.0
27743.000000000004,512.0
27744.0,514.0
27745.0,513.0
27746.000000000004,511.0
27747.0,511.0
27748.0,505.0
27749.000000000004,511.0
27750.0,506.0
27751.0,495.0
27752.0,501.0
27753.0,512.0
27754.0,505.0
27755.0,507.0
27756.0,510.0
27757.0,511.0
27758.0,509.0
27759.0,517.0
27760.0,516.0
27761.0,513.0
27762.0,510.0
27763.0,508.0
27764.0,507.0
27765.0,507.0
27766.0,508.0
27767.0,510.0
27768.0,495.0
27769.000000000004,505.0
27770.0,509.0
27771.0,513.0
27772.000000000004,507.0
27773.0,517.0
27774.0,506.0
27775.000000000004,515.0
27776.0,520.0
27777.0,513.0
27778.000000000004,512.0
27779.0,513.0
27780.0,510.0
27781.0,502.0
27782.0,504.0
27783.0,509.0
27784.0,504.0
27785.0,499.0
27786.0,500.0
27787.0,507.0
27788.0,508.0
27789.0,501.0
27790.0,515.0
27791.0,512.0
27792.0,515.0
27793.0,514.0
27794.0,511.0
27795.0,515.0
27796.0,513.0
27797.0,511.0
27798.0,506.0
27799.0,509.0
27800.0,505.0
27801.000000000004,502.0
27802.0,505.0
27803.0,503.0
27804.000000000004,505.0
27805.0,509.0
27806.0,515.0
27807.000000000004,512.0
27808.0,512.0
27809.0,510.0
27810.000000000004,517.0
27811.0,506.0
27812.0,507.0
27813.0,513.0
27814.0,509.0
27815.0,504.0
27816.0,504.0
27817.0,507.0
27818.0,497.0
27819.0,502.0
27820.0,504.0
27821.0,517.0
27822.0,513.0
27823.0,513.0
27824.0,510.0
27825.0,513.0
27826.0,519.0
27827.0,511.0
27828.0,512.0
27829.0,510.0
27830.000000000004,511.0
27831.0,509.0
27832.0,505.0
27833.000000000004,499.0
27834.0,499.0
27835.0,493.0
27836.000000000004,504.0
27837.0,516.0
27838.0,518.0
27839.000000000004,505.0
27840.0,509.0
27841.0,514.0
27842.000000000004,512.0
27843.0,516.0
27844.0,509.0
27845.0,517.0
27846.0,509.0
27847.0,509.0
27848.0,503.0
27849.0,497.0
27850.0,510.0
27851.0,495.0
27852.0,500.0
27853.0,503.0
27854.0,516.0
27855.0,512.0
27856.0,519.0
27857.0,519.0
27858.0,509.0
27859.0,510.0
27860.0,517.0
27861.0,514.0
27862.000000000004,508.0
27863.0,510.0
27864.0,505.0
27865.000000000004,501.0
27866.0,499.0
27867.0,500.0
27868.000000000004,507.0
27869.0,502.0
27870.0,516.0
27871.000000000004,510.0
27872.0,519.0
27873.0,519.0
27874.000000000004,513.0
27875.0,510.0
27876.0,511.0
27877.0,515.0
27878.0,512.0
27879.0,507.0
27880.0,506.0
27881.0,503.0
27882.0,503.0
27883.0,505.0
27884.0,506.0
27885.0,501.0
27886.0,504.0
27887.0,513.0
27888.0,514.0
27889.0,518.0
27890.0,514.0
27891.0,509.0
27892.0,504.0
27893.0,521.0
27894.000000000004,512.0
27895.0,507.0
27896.0,513.0
27897.000000000004,511.0
27898.0,504.0
27899.0,504.0
27900.000000000004,499.0
27901.0,497.0
27902.0,503.0
27903.000000000004,504.0
27904.0,514.0
27905.0,508.0
27906.0,509.0
27907.0,513.0
27908.0,515.0
27909.0,503.0
27910.0,516.0
27911.0,510.0
27912.0,512.0
27913.0,516.0
27914.0,507.0
27915.0,502.0
27916.0,505.0
27917.0,499.0
27918.0,507.0
27919.0,508.0
27920.0,509.0
27921.0,504.0
27922.0,505.0
27923.0,527.0
27924.0,513.0
27925.0,508.0
27926.000000000004,507.0
27927.0,507.0
27928.0,511.0
27929.000000000004,512.0
27930.0,513.0
27931.0,506.0
27932.000000000004,502.0
27933.0,502.0
27934.0,507.0
27935.000000000004,504.0
27936.0,503.0
27937.0,512.0
27938.0,512.0
27939.0,518.0
27940.0,520.0
27941.0,506.0
27942.0,514.0
27943.0,508.0
27944.0,508.0
27945.0,507.0
27946.0,513.0
27947.0,501.0
27948.0,504.0
27949.0,504.0
27950.0,508.0
27951.0,506.0
27952.0,505.0
27953.0,515.0
27954.0,513.0
27955.000000000004,511.0
27956.0,507.0
27957.0,508.0
27958.000000000004,511.0
27959.0,512.0
27960.0,508.0
27961.000000000004,509.0
27962.0,507.0
27963.0,511.0
27964.000000000004,503.0
27965.0,510.0
27966.0,506.0
27967.000000000004,504.0
27968.0,500.0
27969.0,512.0
27970.0,504.0
27971.0,508.0
27972.0,510.0
27973.0,513.0
27974.0,518.0
27975.0,507.0
27976.0,513.0
27977.0,516.0
27978.0,513.0
27979.0,508.0
27980.0,511.0
27981.0,511.0
27982.0,501.0
27983.0,500.0
27984.0,500.0
27985.0,498.0
27986.0,507.0
27987.000000000004,508.0
27988.0,510.0
27989.0,513.0
27990.000000000004,519.0
27991.0,508.0
27992.0,510.0
27993.000000000004,515.0
27994.0,514.0
27995.0,518.0
27996.000000000004,515.0
27997.0,505.0
27998.0,507.0
27999.000000000004,511.0
