tiempo,valor
22000.0,511.0
22001.0,510.0
22002.0,504.0
22003.0,496.0
22004.0,503.0
22005.0,503.0
22006.0,504.0
22007.0,513.0
22008.0,513.0
22009.0,510.0
22010.0,512.0
22011.0,519.0
22012.0,515.0
22013.0,508.0
22014.0,514.0
22015.0,511.0
22016.0,506.0
22017.0,502.0
22018.0,509.0
22019.000000000004,497.0
22020.0,506.0
22021.0,503.0
22022.000000000004,498.0
22023.0,506.0
22024.0,511.0
22025.000000000004,517.0
22026.0,508.0
22027.0,518.0
22028.0,511.0
22029.0,514.0
22030.0,514.0
22031.0,518.0
22032.0,515.0
22033.0,507.0
22034.0,505.0
22035.0,507.0
22036.0,499.0
22037.0,501.0
22038.0,508.0
22039.0,498.0
22040.0,500.0
22041.0,508.0
22042.0,510.0
22043.0,511.0
22044.0,518.0
22045.0,511.0
22046.0,511.0
22047.0,517.0
22048.0,513.0
22049.0,507.0
22050.0,515.0
22051.000000000004,510.0
22052.0,505.0
22053.0,500.0
22054.000000000004,497.0
22055.0,504.0
22056.0,507.0
22057.000000000004,501.0
22058.0,510.0
22059.0,510.0
22060.0,511.0
22061.0,522.0
22062.0,516.0
22063.0,511.0
22064.0,519.0
22065.0,508.0
22066.0,509.0
22067.0,510.0
22068.0,508.0
22069.0,499.0
22070.0,504.0
22071.0,501.0
22072.0,494.0
22073.0,500.0
22074.0,501.0
22075.0,514.0
22076.0,514.0
22077.0,522.0
22078.0,519.0
22079.0,511.0
22080.000000000004,514.0
22081.0,512.0
22082.0,509.0
22083.000000000004,515.0
22084.0,510.0
22085.0,505.0
22086.000000000004,504.0
22087.0,499.0
22088.0,499.0
22089.000000000004,499.0
22090.0,503.0
22091.0,512.0
22092.0,513.0
22093.0,513.0
22094.0,511.0
22095.0,511.0
22096.0,505.0
22097.0,518.0
22098.0,505.0
22099.0,517.0
22100.0,510.0
22101.0,508.0
22102.0,507.0
22103.0,502.0
22104.0,508.0
22105.0,503.0
22106.0,496.0
22107.0,511.0
22108.0,507.0
22109.0,513.0
22110.0,515.0
22111.0,510.0
22112.000000000004,513.0
22113.0,513.0
22114.0,513.0
22115.000000000004,510.0
22116.0,509.0
22117.0,515.0
22118.000000000004,500.0
22119.0,495.0
22120.0,505.0
22121.000000000004,502.0
22122.0,503.0
22123.0,505.0
22124.0,515.0
22125.0,511.0
22126.0,508.0
22127.0,516.0
22128.0,512.0
22129.0,510.0
22130.0,519.0
22131.0,516.0
22132.0,509.0
22133.0,510.0
22134.0,505.0
22135.0,506.0
22136.0,502.0
22137.0,509.0
22138.0,500.0
22139.0,500.0
22140.0,503.0
22141.0,507.0
22142.0,513.0
22143.0,514.0
22144.000000000004,510.0
22145.0,505.0
22146.0,513.0
22147.000000000004,518.0
22148.0,513.0
22149.0,515.0
22150.000000000004,510.0
22151.0,505.0
22152.0,503.0
22153.0,501.0
22154.0,499.0
22155.0,500.0
22156.0,499.0
22157.0,504.0
22158.0,517.0
22159.0,512.0
22160.0,514.0
22161.0,513.0
22162.0,514.0
22163.0,514.0
22164.0,510.0
22165.0,509.0
22166.0,512.0
22167.0,511.0
22168.0,500.0
22169.0,501.0
22170.0,507.0
22171.0,501.0
22172.0,492.0
22173.0,502.0
22174.0,509.0
22175.0,514.0
22176.000000000004,513.0
22177.0,511.0
22178.0,514.0
22179.000000000004,512.0
22180.0,514.0
22181.0,510.0
22182.000000000004,510.0
22183.0,508.0
22184.0,509.0
22185.0,515.0
22186.0,500.0
22187.0,503.0
22188.0,500.0
22189.0,499.0
22190.0,507.0
22191.0,515.0
22192.0,517.0
22193.0,515.0
22194.0,510.0
22195.0,511.0
22196.0,509.0
22197.0,516.0
22198.0,516.0
22199.0,509.0
22200.0,507.0
22201.0,500.0
22202.0,499.0
22203.0,500.0
22204.0,504.0
22205.000000000004,502.0
22206.0,504.0
22207.0,508.0
22208.000000000004,508.0
22209.0,518.0
22210.0,519.0
22211.000000000004,509.0
22212.0,509.0
22213.0,517.0
22214.000000000004,521.0
22215.0,504.0
22216.0,508.0
22217.0,505.0
22218.0,506.0
22219.0,504.0
22220.0,504.0
22221.0,500.0
22222.0,498.0
22223.0,499.0
22224.0,509.0
22225.0,513.0
22226.0,513.0
22227.0,513.0
22228.0,513.0
22229.0,508.0
22230.0,521.0
22231.0,514.0
22232.0,507.0
22233.0,510.0
22234.0,508.0
22235.0,509.0
22236.0,499.0
22237.000000000004,504.0
22238.0,497.0
22239.0,496.0
22240.000000000004,510.0
22241.0,511.0
22242.0,511.0
22243.000000000004,513.0
22244.0,516.0
22245.0,512.0
22246.000000000004,511.0
22247.0,522.0
22248.0,509.0
22249.0,507.0
22250.0,518.0
22251.0,506.0
22252.0,504.0
22253.0,498.0
22254.0,507.0
22255.0,500.0
22256.0,509.0
22257.0,514.0
22258.0,504.0
22259.0,503.0
22260.0,510.0
22261.0,515.0
22262.0,519.0
22263.0,518.0
22264.0,511.0
22265.0,512.0
22266.0,512.0
22267.0,509.0
22268.0,505.0
22269.000000000004,495.0
22270.0,495.0
22271.0,496.0
22272.000000000004,499.0
22273.0,504.0
22274.0,515.0
22275.000000000004,511.0
22276.0,518.0
22277.0,520.0
22278.0,515.0
22279.0,509.0
22280.0,513.0
22281.0,513.0
22282.0,509.0
22283.0,512.0
22284.0,512.0
22285.0,500.0
22286.0,504.0
22287.0,504.0
22288.0,503.0
22289.0,497.0
22290.0,512.0
22291.0,511.0
22292.0,510.0
22293.0,513.0
22294.0,506.0
22295.0,511.0
22296.0,505.0
22297.0,520.0
22298.0,516.0
22299.0,511.0
22300.0,504.0
22301.000000000004,507.0
22302.0,505.0
22303.0,504.0
22304.000000000004,500.0
22305.0,499.0
22306.0,502.0
22307.000000000004,513.0
22308.0,507.0
22309.0,515.0
22310.0,519.0
22311.0,518.0
22312.0,507.0
22313.0,508.0
22314.0,519.0
22315.0,522.0
22316.0,514.0
22317.0,506.0
22318.0,504.0
22319.0,502.0
22320.0,508.0
22321.0,499.0
22322.0,492.0
22323.0,507.0
22324.0,506.0
22325.0,512.0
22326.0,515.0
22327.0,516.0
22328.0,508.0
22329.0,513.0
22330.000000000004,513.0
22331.0,515.0
22332.0,508.0
22333.000000000004,519.0
22334.0,510.0
22335.0,504.0
22336.000000000004,507.0
22337.0,507.0
22338.0,496.0
22339.000000000004,491.0
22340.0,508.0
22341.0,508.0
22342.0,512.0
22343.0,514.0
22344.0,514.0
22345.0,515.0
22346.0,511.0
22347.0,514.0
22348.0,512.0
22349.0,511.0
22350.0,511.0
22351.0,508.0
22352.0,504.0
22353.0,502.0
22354.0,510.0
22355.0,509.0
22356.0,503.0
22357.0,508.0
22358.0,506.0
22359.0,513.0
22360.0,524.0
22361.0,510.0
22362.000000000004,508.0
22363.0,510.0
22364.0,514.0
22365.000000000004,510.0
22366.0,517.0
22367.0,507.0
22368.000000000004,501.0
22369.0,502.0
22370.0,506.0
22371.000000000004,508.0
22372.0,493.0
22373.0,502.0
22374.0,511.0
22375.0,511.0
22376.0,511.0
22377.0,515.0
22378.0,519.0
22379.0,509.0
22380.0,521.0
22381.0,515.0
22382.0,512.0
22383.0,515.0
22384.0,507.0
22385.0,508.0
22386.0,505.0
22387.0,506.0
22388.0,496.0
22389.0,499.0
22390.0,505.0
22391.0,508.0
22392.0,510.0
22393.0,513.0
22394.000000000004,517.0
22395.0,519.0
22396.0,516.0
22397.000000000004,510.0
22398.0,511.0
22399.0,513.0
22400.000000000004,511.0
22401.0,500.0
22402.0,501.0
22403.0,501.0
22404.0,504.0
22405.0,502.0
22406.0,503.0
22407.0,517.0
22408.0,507.0
22409.0,514.0
22410.0,518.0
22411.0,511.0
22412.0,518.0
22413.0,506.0
22414.0,505.0
22415.0,515.0
22416.0,515.0
22417.0,517.0
22418.0,506.0
22419.0,504.0
22420.0,502.0
22421.0,498.0
22422.0,495.0
22423.0,505.0
22424.0,506.0
22425.0,511.0
22426.000000000004,515.0
22427.0,511.0
22428.0,513.0
22429.000000000004,511.0
22430.0,514.0
22431.0,513.0
22432.000000000004,509.0
22433.0,508.0
22434.0,514.0
22435.0,503.0
22436.0,507.0
22437.0,506.0
22438.0,492.0
22439.0,506.0
22440.0,508.0
22441.0,508.0
22442.0,508.0
22443.0,515.0
22444.0,513.0
22445.0,510.0
22446.0,520.0
22447.0,526.0
22448.0,512.0
22449.0,511.0
22450.0,506.0
22451.0,504.0
22452.0,504.0
22453.0,502.0
22454.0,507.0
22455.000000000004,499.0
22456.0,504.0
22457.0,513.0
22458.000000000004,508.0
22459.0,503.0
22460.0,519.0
22461.000000000004,510.0
22462.0,513.0
22463.0,518.0
22464.000000000004,518.0
22465.0,513.0
22466.0,510.0
22467.0,508.0
22468.0,500.0
22469.0,506.0
22470.0,507.0
22471.0,498.0
22472.0,502.0
22473.0,505.0
22474.0,507.0
22475.0,513.0
22476.0,515.0
22477.0,514.0
22478.0,514.0
22479.0,512.0
22480.0,513.0
22481.0,512.0
22482.0,508.0
22483.0,512.0
22484.0,516.0
22485.0,506.0
22486.0,500.0
22487.000000000004,500.0
22488.0,496.0
22489.0,496.0
22490.000000000004,506.0
22491.0,507.0
22492.0,511.0
22493.000000000004,512.0
22494.0,519.0
22495.0,513.0
22496.000000000004,518.0
22497.0,516.0
22498.0,512.0
22499.0,508.0
22500.0,511.0
22501.0,507.0
22502.0,501.0
22503.0,501.0
22504.0,505.0
22505.0,504.0
22506.0,500.0
22507.0,513.0
22508.0,504.0
22509.0,511.0
22510.0,520.0
22511.0,515.0
22512.0,510.0
22513.0,515.0
22514.0,510.0
22515.0,513.0
22516.0,511.0
22517.0,512.0
22518.0,509.0
22519.000000000004,500.0
22520.0,504.0
22521.0,495.0
22522.000000000004,505.0
22523.0,502.0
22524.0,510.0
22525.000000000004,516.0
22526.0,507.0
22527.0,513.0
22528.0,515.0
22529.0,513.0
22530.0,519.0
22531.0,509.0
22532.0,507.0
22533.0,508.0
22534.0,500.0
22535.0,496.0
22536.0,501.0
22537.0,511.0
22538.0,501.0
22539.0,507.0
22540.0,505.0
22541.0,501.0
22542.0,508.0
22543.0,512.0
22544.0,512.0
22545.0,519.0
22546.0,518.0
22547.0,516.0
22548.0,515.0
22549.0,514.0
22550.0,505.0
22551.000000000004,507.0
22552.0,503.0
22553.0,505.0
22554.000000000004,508.0
22555.0,497.0
22556.0,509.0
22557.000000000004,507.0
22558.0,511.0
22559.0,513.0
22560.0,517.0
22561.0,515.0
22562.0,511.0
22563.0,514.0
22564.0,514.0
22565.0,511.0
22566.0,515.0
22567.0,508.0
22568.0,504.0
22569.0,503.0
22570.0,507.0
22571.0,498.0
22572.0,495.0
22573.0,503.0
22574.0,503.0
22575.0,512.0
22576.0,518.0
22577.0,516.0
22578.0,511.0
22579.0,514.0
22580.000000000004,518.0
22581.0,512.0
22582.0,512.0
22583.000000000004,512.0
22584.0,510.0
22585.0,505.0
22586.000000000004,500.0
22587.0,501.0
22588.0,502.0
22589.000000000004,500.0
22590.0,508.0
22591.0,508.0
22592.0,510.0
22593.0,517.0
22594.0,518.0
22595.0,512.0
22596.0,519.0
22597.0,516.0
22598.0,511.0
22599.0,510.0
22600.0,508.0
22601.0,504.0
22602.0,498.0
22603.0,506.0
22604.0,511.0
22605.0,504.0
22606.0,502.0
22607.0,504.0
22608.0,511.0
22609.0,508.0
22610.0,513.0
22611.0,518.0
22612.000000000004,517.0
22613.0,515.0
22614.0,510.0
22615.000000000004,504.0
22616.0,509.0
22617.0,510.0
22618.000000000004,504.0
22619.0,497.0
22620.0,508.0
22621.000000000004,504.0
22622.0,499.0
22623.0,501.0
22624.0,507.0
22625.0,515.0
22626.0,514.0
22627.0,521.0
22628.0,516.0
22629.0,504.0
22630.0,517.0
22631.0,507.0
22632.0,508.0
22633.0,511.0
22634.0,508.0
22635.0,508.0
22636.0,504.0
22637.0,513.0
22638.0,501.0
22639.0,500.0
22640.0,507.0
22641.0,506.0
22642.0,509.0
22643.0,509.0
22644.000000000004,520.0
22645.0,511.0
22646.0,513.0
22647.000000000004,513.0
22648.0,510.0
22649.0,513.0
22650.000000000004,511.0
22651.0,500.0
22652.0,499.0
22653.000000000004,501.0
22654.0,503.0
22655.0,504.0
22656.0,501.0
22657.0,514.0
22658.0,513.0
22659.0,512.0
22660.0,517.0
22661.0,518.0
22662.0,516.0
22663.0,510.0
22664.0,507.0
22665.0,513.0
22666.0,507.0
22667.0,510.0
22668.0,503.0
22669.0,506.0
22670.0,504.0
22671.0,493.0
22672.0,499.0
22673.0,504.0
22674.0,508.0
22675.0,508.0
22676.000000000004,513.0
22677.0,524.0
22678.0,514.0
22679.000000000004,511.0
22680.0,519.0
22681.0,512.0
22682.000000000004,511.0
22683.0,514.0
22684.0,508.0
22685.0,501.0
22686.0,500.0
22687.0,505.0
22688.0,499.0
22689.0,502.0
22690.0,508.0
22691.0,508.0
22692.0,511.0
22693.0,520.0
22694.0,518.0
22695.0,510.0
22696.0,517.0
22697.0,509.0
22698.0,504.0
22699.0,504.0
22700.0,513.0
22701.0,506.0
22702.0,507.0
22703.0,501.0
22704.0,498.0
22705.000000000004,507.0
22706.0,506.0
22707.0,509.0
22708.000000000004,507.0
22709.0,515.0
22710.0,512.0
22711.000000000004,513.0
22712.0,514.0
22713.0,517.0
22714.000000000004,516.0
22715.0,508.0
22716.0,511.0
22717.0,508.0
22718.0,501.0
22719.0,495.0
22720.0,499.0
22721.0,502.0
22722.0,512.0
22723.0,505.0
22724.0,507.0
22725.0,509.0
22726.0,510.0
22727.0,513.0
22728.0,517.0
22729.0,516.0
22730.0,514.0
22731.0,509.0
22732.0,505.0
22733.0,513.0
22734.0,506.0
22735.0,505.0
22736.0,504.0
22737.000000000004,507.0
22738.0,493.0
22739.0,507.0
22740.000000000004,509.0
22741.0,509.0
22742.0,523.0
22743.000000000004,518.0
22744.0,512.0
22745.0,516.0
22746.000000000004,515.0
22747.0,511.0
22748.0,506.0
22749.0,507.0
22750.0,504.0
22751.0,505.0
22752.0,506.0
22753.0,504.0
22754.0,498.0
22755.0,501.0
22756.0,506.0
22757.0,508.0
22758.0,512.0
22759.0,506.0
22760.0,518.0
22761.0,510.0
22762.0,512.0
22763.0,517.0
22764.0,514.0
22765.0,516.0
22766.0,509.0
22767.0,499.0
22768.0,504.0
22769.000000000004,501.0
22770.0,506.0
22771.0,512.0
22772.000000000004,499.0
22773.0,499.0
22774.0,509.0
22775.000000000004,510.0
22776.0,505.0
22777.0,513.0
22778.000000000004,521.0
22779.0,516.0
22780.0,511.0
22781.0,515.0
22782.0,506.0
22783.0,507.0
22784.0,507.0
22785.0,508.0
22786.0,499.0
22787.0,506.0
22788.0,502.0
22789.0,508.0
22790.0,505.0
22791.0,509.0
22792.0,515.0
22793.0,516.0
22794.0,514.0
22795.0,509.0
22796.0,519.0
22797.0,512.0
22798.0,503.0
22799.0,508.0
22800.0,513.0
22801.000000000004,503.0
22802.0,504.0
22803.0,507.0
22804.000000000004,500.0
22805.0,497.0
22806.0,499.0
22807.000000000004,514.0
22808.0,510.0
22809.0,515.0
22810.0,510.0
22811.0,514.0
22812.0,511.0
22813.0,519.0
22814.0,509.0
22815.0,512.0
22816.0,512.0
22817.0,509.0
22818.0,496.0
22819.0,507.0
22820.0,503.0
22821.0,502.0
22822.0,502.0
22823.0,511.0
22824.0,510.0
22825.0,524.0
22826.0,511.0
22827.0,514.0
22828.0,511.0
22829.0,521.0
22830.000000000004,513.0
22831.0,508.0
22832.0,506.0
22833.000000000004,507.0
22834.0,507.0
22835.0,509.0
22836.000000000004,507.0
22837.0,498.0
22838.0,494.0
22839.000000000004,505.0
22840.0,507.0
22841.0,507.0
22842.0,510.0
22843.0,517.0
22844.0,508.0
22845.0,510.0
22846.0,517.0
22847.0,522.0
22848.0,508.0
22849.0,507.0
22850.0,503.0
22851.0,506.0
22852.0,497.0
22853.0,500.0
22854.0,504.0
22855.0,511.0
22856.0,501.0
22857.0,515.0
22858.0,513.0
22859.0,511.0
22860.0,509.0
22861.0,515.0
22862.000000000004,513.0
22863.0,515.0
22864.0,508.0
22865.000000000004,507.0
22866.0,507.0
22867.0,508.0
22868.000000000004,506.0
22869.0,497.0
22870.0,505.0
22871.000000000004,503.0
22872.0,503.0
22873.0,507.0
22874.0,511.0
22875.0,509.0
22876.0,512.0
22877.0,520.0
22878.0,508.0
22879.0,512.0
22880.0,523.0
22881.0,510.0
22882.0,509.0
22883.0,508.0
22884.0,504.0
22885.0,505.0
22886.0,512.0
22887.0,502.0
22888.0,490.0
22889.0,498.0
22890.0,515.0
22891.0,509.0
22892.0,504.0
22893.0,516.0
22894.000000000004,512.0
22895.0,523.0
22896.0,514.0
22897.000000000004,514.0
22898.0,507.0
22899.0,511.0
22900.000000000004,511.0
22901.0,503.0
22902.0,508.0
22903.000000000004,504.0
22904.0,497.0
22905.0,497.0
22906.0,502.0
22907.0,507.0
22908.0,510.0
22909.0,508.0
22910.0,514.0
22911.0,521.0
22912.0,516.0
22913.0,518.0
22914.0,508.0
22915.0,507.0
22916.0,509.0
22917.0,516.0
22918.0,502.0
22919.0,503.0
22920.0,512.0
22921.0,497.0
22922.0,503.0
22923.0,504.0
22924.0,508.0
22925.0,511.0
22926.000000000004,513.0
22927.0,511.0
22928.0,511.0
22929.000000000004,515.0
22930.0,517.0
22931.0,518.0
22932.000000000004,510.0
22933.0,502.0
22934.0,502.0
22935.0,507.0
22936.0,506.0
22937.0,506.0
22938.0,494.0
22939.0,503.0
22940.0,512.0
22941.0,506.0
22942.0,512.0
22943.0,515.0
22944.0,515.0
22945.0,511.0
22946.0,512.0
22947.0,520.0
22948.0,507.0
22949.0,508.0
22950.0,508.0
22951.0,505.0
22952.0,511.0
22953.0,502.0
22954.0,500.0
22955.000000000004,507.0
22956.0,508.0
22957.0,504.0
22958.000000000004,506.0
22959.0,512.0
22960.0,516.0
22961.000000000004,513.0
22962.0,513.0
22963.0,515.0
22964.000000000004,512.0
22965.0,515.0
22966.0,508.0
22967.0,513.0
22968.0,500.0
22969.0,501.0
22970.0,503.0
22971.0,495.0
22972.0,504.0
22973.0,506.0
22974.0,512.0
22975.0,513.0
22976.0,516.0
22977.0,512.0
22978.0,509.0
22979.0,518.0
22980.0,517.0
22981.0,514.0
22982.0,514.0
22983.0,509.0
22984.0,507.0
22985.0,500.0
22986.0,504.0
22987.000000000004,498.0
22988.0,497.0
22989.0,505.0
22990.000000000004,516.0
22991.0,507.0
22992.0,506.0
22993.000000000004,519.0
22994.0,514.0
22995.0,518.0
22996.000000000004,518.0
22997.0,507.0
22998.0,511.0
22999.0,504.0
23000.0,511.0
23001.0,504.0
23002.0,506.0
23003.0,504.0
23004.0,502.0
23005.0,501.0
23006.0,508.0
23007.0,508.0
23008.0,513.0
23009.0,509.0
23010.0,519.0
23011.0,517.0
23012.0,511.0
23013.0,516.0
23014.0,512.0
23015.0,512.0
23016.0,514.0
23017.0,512.0
23018.0,497.0
23019.000000000004,499.0
23020.0,508.0
23021.0,498.0
23022.000000000004,504.0
23023.0,507.0
23024.0,509.0
23025.000000000004,511.0
23026.0,517.0
23027.0,514.0
23028.000000000004,517.0
23029.0,515.0
23030.0,513.0
23031.0,509.0
23032.0,510.0
23033.0,510.0
23034.0,508.0
23035.0,504.0
23036.0,500.0
23037.0,500.0
23038.0,498.0
23039.0,504.0
23040.0,509.0
23041.0,513.0
23042.0,509.0
23043.0,515.0
23044.0,509.0
23045.0,509.0
23046.0,515.0
23047.0,509.0
23048.0,507.0
23049.0,516.0
23050.0,515.0
23051.000000000004,500.0
23052.0,508.0
23053.0,503.0
23054.000000000004,493.0
23055.0,499.0
23056.0,507.0
23057.000000000004,513.0
23058.0,517.0
23059.0,505.0
23060.0,510.0
23061.0,512.0
23062.0,512.0
23063.0,513.0
23064.0,508.0
23065.0,511.0
23066.0,515.0
23067.0,511.0
23068.0,499.0
23069.0,508.0
23070.0,500.0
23071.0,495.0
23072.0,509.0
23073.0,508.0
23074.0,511.0
23075.0,517.0
23076.0,518.0
23077.0,514.0
23078.0,512.0
23079.0,516.0
23080.000000000004,518.0
23081.0,512.0
23082.0,508.0
23083.000000000004,508.0
23084.0,504.0
23085.0,504.0
23086.000000000004,501.0
23087.0,499.0
23088.0,495.0
23089.000000000004,504.0
23090.0,512.0
23091.0,512.0
23092.0,513.0
23093.0,515.0
23094.0,513.0
23095.0,514.0
23096.0,515.0
23097.0,510.0
23098.0,505.0
23099.0,508.0
23100.0,515.0
23101.0,504.0
23102.0,503.0
23103.0,504.0
23104.0,502.0
23105.0,491.0
23106.0,503.0
23107.0,507.0
23108.0,508.0
23109.0,513.0
23110.0,520.0
23111.0,516.0
23112.000000000004,512.0
23113.0,515.0
23114.0,514.0
23115.000000000004,515.0
23116.0,512.0
23117.0,508.0
23118.000000000004,498.0
23119.0,498.0
23120.0,508.0
23121.000000000004,497.0
23122.0,503.0
23123.0,510.0
23124.0,515.0
23125.0,512.0
23126.0,520.0
23127.0,518.0
23128.0,514.0
23129.0,516.0
23130.0,512.0
23131.0,507.0
23132.0,512.0
23133.0,515.0
23134.0,506.0
23135.0,493.0
23136.0,504.0
23137.0,499.0
23138.0,497.0
23139.0,505.0
23140.0,510.0
23141.0,510.0
23142.0,513.0
23143.0,515.0
23144.000000000004,513.0
23145.0,512.0
23146.0,519.0
23147.000000000004,510.0
23148.0,515.0
23149.0,508.0
23150.000000000004,511.0
23151.0,500.0
23152.0,495.0
23153.000000000004,503.0
23154.0,497.0
23155.0,505.0
23156.0,507.0
23157.0,511.0
23158.0,514.0
23159.0,509.0
23160.0,519.0
23161.0,506.0
23162.0,512.0
23163.0,515.0
23164.0,512.0
23165.0,514.0
23166.0,513.0
23167.0,510.0
23168.0,500.0
23169.0,499.0
23170.0,504.0
23171.0,492.0
23172.0,505.0
23173.0,513.0
23174.0,512.0
23175.0,511.0
23176.000000000004,520.0
23177.0,516.0
23178.0,512.0
23179.000000000004,512.0
23180.0,517.0
23181.0,503.0
23182.000000000004,508.0
23183.0,510.0
23184.0,508.0
23185.0,505.0
23186.0,502.0
23187.0,493.0
23188.0,499.0
23189.0,505.0
23190.0,508.0
23191.0,511.0
23192.0,512.0
23193.0,517.0
23194.0,515.0
23195.0,513.0
23196.0,521.0
23197.0,504.0
23198.0,516.0
23199.0,517.0
23200.0,508.0
23201.0,502.0
23202.0,503.0
23203.0,503.0
23204.0,502.0
23205.000000000004,504.0
23206.0,504.0
23207.0,511.0
23208.000000000004,508.0
23209.0,516.0
23210.0,504.0
23211.000000000004,511.0
23212.0,512.0
23213.0,513.0
23214.000000000004,509.0
23215.0,517.0
23216.0,509.0
23217.0,505.0
23218.0,501.0
23219.0,504.0
23220.0,504.0
23221.0,487.0
23222.0,506.0
23223.0,509.0
23224.0,513.0
23225.0,513.0
23226.0,517.0
23227.0,508.0
23228.0,510.0
23229.0,515.0
23230.0,519.0
23231.0,512.0
23232.0,516.0
23233.0,510.0
23234.0,501.0
23235.0,502.0
23236.0,505.0
23237.000000000004,493.0
23238.0,498.0
23239.0,502.0
23240.000000000004,509.0
23241.0,512.0
23242.0,512.0
23243.000000000004,512.0
23244.0,514.0
23245.0,516.0
23246.000000000004,515.0
23247.0,515.0
23248.0,501.0
23249.0,515.0
23250.0,515.0
23251.0,503.0
23252.0,499.0
23253.0,503.0
23254.0,499.0
23255.0,502.0
23256.0,509.0
23257.0,510.0
23258.0,512.0
23259.0,517.0
23260.0,511.0
23261.0,508.0
23262.0,510.0
23263.0,518.0
23264.0,511.0
23265.0,511.0
23266.0,512.0
23267.0,509.0
23268.0,505.0
23269.000000000004,512.0
23270.0,500.0
23271.0,500.0
23272.000000000004,509.0
23273.0,508.0
23274.0,513.0
23275.000000000004,513.0
23276.0,508.0
23277.0,510.0
23278.000000000004,509.0
23279.0,512.0
23280.0,514.0
23281.0,514.0
23282.0,513.0
23283.0,509.0
23284.0,501.0
23285.0,492.0
23286.0,502.0
23287.0,508.0
23288.0,499.0
23289.0,503.0
23290.0,520.0
23291.0,507.0
23292.0,506.0
23293.0,516.0
23294.0,514.0
23295.0,520.0
23296.0,519.0
23297.0,511.0
23298.0,509.0
23299.0,511.0
23300.0,513.0
23301.000000000004,499.0
23302.0,501.0
23303.0,503.0
23304.000000000004,503.0
23305.0,498.0
23306.0,507.0
23307.000000000004,511.0
23308.0,507.0
23309.0,519.0
23310.0,524.0
23311.0,513.0
23312.0,515.0
23313.0,512.0
23314.0,503.0
23315.0,514.0
23316.0,511.0
23317.0,503.0
23318.0,503.0
23319.0,507.0
23320.0,500.0
23321.0,497.0
23322.0,494.0
23323.0,508.0
23324.0,515.0
23325.0,511.0
23326.0,517.0
23327.0,513.0
23328.0,510.0
23329.0,514.0
23330.000000000004,518.0
23331.0,511.0
23332.0,511.0
23333.000000000004,505.0
23334.0,505.0
23335.0,507.0
23336.000000000004,505.0
23337.0,491.0
23338.0,500.0
23339.000000000004,509.0
23340.0,512.0
23341.0,512.0
23342.0,512.0
23343.0,518.0
23344.0,511.0
23345.0,514.0
23346.0,517.0
23347.0,514.0
23348.0,511.0
23349.0,511.0
23350.0,509.0
23351.0,500.0
23352.0,503.0
23353.0,503.0
23354.0,504.0
23355.0,510.0
23356.0,510.0
23357.0,508.0
23358.0,505.0
23359.0,514.0
23360.0,516.0
23361.0,514.0
23362.000000000004,516.0
23363.0,515.0
23364.0,510.0
23365.000000000004,511.0
23366.0,509.0
23367.0,505.0
23368.000000000004,495.0
23369.0,512.0
23370.0,496.0
23371.000000000004,493.0
23372.0,511.0
23373.0,512.0
23374.0,510.0
23375.0,512.0
23376.0,516.0
23377.0,512.0
23378.0,511.0
23379.0,520.0
23380.0,509.0
23381.0,509.0
23382.0,518.0
23383.0,506.0
23384.0,497.0
23385.0,506.0
23386.0,504.0
23387.0,497.0
23388.0,502.0
23389.0,499.0
23390.0,512.0
23391.0,512.0
23392.0,514.0
23393.0,512.0
23394.000000000004,509.0
23395.0,515.0
23396.0,512.0
23397.000000000004,519.0
23398.0,504.0
23399.0,510.0
23400.000000000004,505.0
23401.0,500.0
23402.0,501.0
23403.000000000004,505.0
23404.0,496.0
23405.0,511.0
23406.0,510.0
23407.0,508.0
23408.0,512.0
23409.0,517.0
23410.0,518.0
23411.0,511.0
23412.0,518.0
23413.0,516.0
23414.0,506.0
23415.0,516.0
23416.0,515.0
23417.0,507.0
23418.0,498.0
23419.0,499.0
23420.0,505.0
23421.0,496.0
23422.0,505.0
23423.0,507.0
23424.0,507.0
23425.0,504.0
23426.000000000004,511.0
23427.0,520.0
23428.0,515.0
23429.000000000004,517.0
23430.0,514.0
23431.0,508.0
23432.000000000004,514.0
23433.0,508.0
23434.0,494.0
23435.0,507.0
23436.0,503.0
23437.0,499.0
23438.0,499.0
23439.0,504.0
23440.0,509.0
23441.0,515.0
23442.0,511.0
23443.0,513.0
23444.0,511.0
23445.0,517.0
23446.0,518.0
23447.0,502.0
23448.0,508.0
23449.0,512.0
23450.0,504.0
23451.0,499.0
23452.0,501.0
23453.0,503.0
23454.0,507.0
23455.000000000004,501.0
23456.0,507.0
23457.0,508.0
23458.000000000004,509.0
23459.0,517.0
23460.0,518.0
23461.000000000004,507.0
23462.0,515.0
23463.0,513.0
23464.000000000004,505.0
23465.0,515.0
23466.0,511.0
23467.0,496.0
23468.0,504.0
23469.0,505.0
23470.0,506.0
23471.0,505.0
23472.0,500.0
23473.0,514.0
23474.0,509.0
23475.0,510.0
23476.0,515.0
23477.0,511.0
23478.0,508.0
23479.0,515.0
23480.0,522.0
23481.0,508.0
23482.0,507.0
23483.0,510.0
23484.0,496.0
23485.0,505.0
23486.0,504.0
23487.000000000004,500.0
23488.0,497.0
23489.0,507.0
23490.000000000004,505.0
23491.0,505.0
23492.0,523.0
23493.000000000004,523.0
23494.0,515.0
23495.0,519.0
23496.000000000004,515.0
23497.0,511.0
23498.0,511.0
23499.0,508.0
23500.0,516.0
23501.0,502.0
23502.0,499.0
23503.0,504.0
23504.0,496.0
23505.0,498.0
23506.0,509.0
23507.0,508.0
23508.0,512.0
23509.0,520.0
23510.0,514.0
23511.0,514.0
23512.0,517.0
23513.0,505.0
23514.0,511.0
23515.0,508.0
23516.0,500.0
23517.0,504.0
23518.0,502.0
23519.000000000004,505.0
23520.0,494.0
23521.0,498.0
23522.000000000004,510.0
23523.0,514.0
23524.0,506.0
23525.000000000004,516.0
23526.0,518.0
23527.0,515.0
23528.000000000004,518.0
23529.0,519.0
23530.0,504.0
23531.0,503.0
23532.0,510.0
23533.0,505.0
23534.0,493.0
23535.0,507.0
23536.0,508.0
23537.0,503.0
23538.0,501.0
23539.0,503.0
23540.0,517.0
23541.0,513.0
23542.0,516.0
23543.0,519.0
23544.0,510.0
23545.0,515.0
23546.0,514.0
23547.0,511.0
23548.0,513.0
23549.0,505.0
23550.0,503.0
23551.000000000004,499.0
23552.0,503.0
23553.0,502.0
23554.000000000004,497.0
23555.0,507.0
23556.0,503.0
23557.000000000004,510.0
23558.0,514.0
23559.0,516.0
23560.0,518.0
23561.0,506.0
23562.0,514.0
23563.0,524.0
23564.0,515.0
23565.0,514.0
23566.0,503.0
23567.0,502.0
23568.0,497.0
23569.0,503.0
23570.0,500.0
23571.0,504.0
23572.0,499.0
23573.0,511.0
23574.0,513.0
23575.0,512.0
23576.0,514.0
23577.0,515.0
23578.0,514.0
23579.0,514.0
23580.000000000004,513.0
23581.0,513.0
23582.0,512.0
23583.000000000004,508.0
23584.0,499.0
23585.0,509.0
23586.000000000004,505.0
23587.0,498.0
23588.0,504.0
23589.000000000004,506.0
23590.0,515.0
23591.0,501.0
23592.0,515.0
23593.0,518.0
23594.0,513.0
23595.0,520.0
23596.0,515.0
23597.0,505.0
23598.0,516.0
23599.0,515.0
23600.0,507.0
23601.0,505.0
23602.0,500.0
23603.0,506.0
23604.0,492.0
23605.0,506.0
23606.0,507.0
23607.0,509.0
23608.0,515.0
23609.0,518.0
23610.0,501.0
23611.0,506.0
23612.000000000004,516.0
23613.0,519.0
23614.0,511.0
23615.000000000004,515.0
23616.0,508.0
23617.0,501.0
23618.000000000004,506.0
23619.0,497.0
23620.0,508.0
23621.000000000004,499.0
23622.0,507.0
23623.0,512.0
23624.0,512.0
23625.0,514.0
23626.0,517.0
23627.0,509.0
23628.0,513.0
23629.0,510.0
23630.0,508.0
23631.0,507.0
23632.0,512.0
23633.0,511.0
23634.0,497.0
23635.0,511.0
23636.0,509.0
23637.0,506.0
23638.0,498.0
23639.0,509.0
23640.0,508.0
23641.0,510.0
23642.0,511.0
23643.0,512.0
23644.000000000004,515.0
23645.0,515.0
23646.0,512.0
23647.000000000004,514.0
23648.0,511.0
23649.0,509.0
23650.000000000004,508.0
23651.0,492.0
23652.0,496.0
23653.000000000004,506.0
23654.0,504.0
23655.0,505.0
23656.0,509.0
23657.0,513.0
23658.0,511.0
23659.0,517.0
23660.0,515.0
23661.0,510.0
23662.0,516.0
23663.0,508.0
23664.0,510.0
23665.0,515.0
23666.0,510.0
23667.0,497.0
23668.0,502.0
23669.0,504.0
23670.0,502.0
23671.0,495.0
23672.0,515.0
23673.0,507.0
23674.0,512.0
23675.0,510.0
23676.000000000004,511.0
23677.0,518.0
23678.0,511.0
23679.000000000004,516.0
23680.0,511.0
23681.0,509.0
23682.000000000004,509.0
23683.0,509.0
23684.0,503.0
23685.0,504.0
23686.0,505.0
23687.0,508.0
23688.0,499.0
23689.0,516.0
23690.0,518.0
23691.0,511.0
23692.0,516.0
23693.0,510.0
23694.0,512.0
23695.0,514.0
23696.0,513.0
23697.0,518.0
23698.0,507.0
23699.0,504.0
23700.0,506.0
23701.0,500.0
23702.0,506.0
23703.0,504.0
23704.0,496.0
23705.000000000004,504.0
23706.0,510.0
23707.0,512.0
23708.000000000004,512.0
23709.0,509.0
23710.0,521.0
23711.000000000004,506.0
23712.0,519.0
23713.0,508.0
23714.000000000004,511.0
23715.0,512.0
23716.0,513.0
23717.0,502.0
23718.0,497.0
23719.0,504.0
23720.0,500.0
23721.0,495.0
23722.0,501.0
23723.0,508.0
23724.0,515.0
23725.0,518.0
23726.0,510.0
23727.0,523.0
23728.0,517.0
23729.0,514.0
23730.0,515.0
23731.0,509.0
23732.0,509.0
23733.0,515.0
23734.0,494.0
23735.0,502.0
23736.0,502.0
23737.000000000004,503.0
23738.0,503.0
23739.0,506.0
23740.000000000004,511.0
23741.0,510.0
23742.0,515.0
23743.000000000004,511.0
23744.0,513.0
23745.0,513.0
23746.000000000004,512.0
23747.0,510.0
23748.0,513.0
23749.0,514.0
23750.0,508.0
23751.0,499.0
23752.0,505.0
23753.0,502.0
23754.0,505.0
23755.0,506.0
23756.0,502.0
23757.0,506.0
23758.0,511.0
23759.0,517.0
23760.0,515.0
23761.0,514.0
23762.0,514.0
23763.0,517.0
23764.0,508.0
23765.0,514.0
23766.0,507.0
23767.0,494.0
23768.0,504.0
23769.000000000004,504.0
23770.0,498.0
23771.0,501.0
23772.000000000004,508.0
23773.0,508.0
23774.0,512.0
23775.000000000004,510.0
23776.0,516.0
23777.0,512.0
23778.000000000004,517.0
23779.0,519.0
23780.0,509.0
23781.0,511.0
23782.0,507.0
23783.0,508.0
23784.0,508.0
23785.0,503.0
23786.0,499.0
23787.0,504.0
23788.0,506.0
23789.0,515.0
23790.0,512.0
23791.0,507.0
23792.0,516.0
23793.0,519.0
23794.0,511.0
23795.0,514.0
23796.0,515.0
23797.0,513.0
23798.0,513.0
23799.0,509.0
23800.0,502.0
23801.000000000004,504.0
23802.0,508.0
23803.0,497.0
23804.000000000004,493.0
23805.0,506.0
23806.0,502.0
23807.000000000004,508.0
23808.0,509.0
23809.0,520.0
23810.0,514.0
23811.0,519.0
23812.0,515.0
23813.0,516.0
23814.0,501.0
23815.0,510.0
23816.0,512.0
23817.0,505.0
23818.0,506.0
23819.0,499.0
23820.0,505.0
23821.0,502.0
23822.0,499.0
23823.0,503.0
23824.0,506.0
23825.0,515.0
23826.0,520.0
23827.0,504.0
23828.0,515.0
23829.0,522.0
23830.000000000004,509.0
23831.0,506.0
23832.0,515.0
23833.000000000004,510.0
23834.0,499.0
23835.0,507.0
23836.000000000004,510.0
23837.0,501.0
23838.0,500.0
23839.000000000004,512.0
23840.0,500.0
23841.0,510.0
23842.0,515.0
23843.0,519.0
23844.0,507.0
23845.0,524.0
23846.0,513.0
23847.0,508.0
23848.0,511.0
23849.0,504.0
23850.0,509.0
23851.0,502.0
23852.0,503.0
23853.0,500.0
23854.0,489.0
23855.0,504.0
23856.0,515.0
23857.0,515.0
23858.0,512.0
23859.0,512.0
23860.0,521.0
23861.0,513.0
23862.000000000004,512.0
23863.0,504.0
23864.0,513.0
23865.000000000004,515.0
23866.0,508.0
23867.0,501.0
23868.000000000004,500.0
23869.0,497.0
23870.0,507.0
23871.000000000004,504.0
23872.0,506.0
23873.0,505.0
23874.0,511.0
23875.0,513.0
23876.0,521.0
23877.0,519.0
23878.0,514.0
23879.0,518.0
23880.0,507.0
23881.0,514.0
23882.0,511.0
23883.0,504.0
23884.0,500.0
23885.0,504.0
23886.0,497.0
23887.0,498.0
23888.0,498.0
23889.0,514.0
23890.0,514.0
23891.0,518.0
23892.0,513.0
23893.0,517.0
23894.000000000004,509.0
23895.0,510.0
23896.0,517.0
23897.000000000004,511.0
23898.0,511.0
23899.0,510.0
23900.000000000004,503.0
23901.0,500.0
23902.0,505.0
23903.000000000004,497.0
23904.0,497.0
23905.0,507.0
23906.0,507.0
23907.0,510.0
23908.0,515.0
23909.0,513.0
23910.0,516.0
23911.0,512.0
23912.0,516.0
23913.0,513.0
23914.0,504.0
23915.0,518.0
23916.0,509.0
23917.0,504.0
23918.0,500.0
23919.0,501.0
23920.0,504.0
23921.0,501.0
23922.0,508.0
23923.0,510.0
23924.0,510.0
23925.0,514.0
23926.000000000004,528.0
23927.0,514.0
23928.0,517.0
23929.000000000004,505.0
23930.0,508.0
23931.0,506.0
23932.000000000004,514.0
23933.0,509.0
23934.0,501.0
23935.000000000004,499.0
23936.0,497.0
23937.0,504.0
23938.0,506.0
23939.0,510.0
23940.0,510.0
23941.0,509.0
23942.0,516.0
23943.0,513.0
23944.0,519.0
23945.0,515.0
23946.0,514.0
23947.0,511.0
23948.0,503.0
23949.0,509.0
23950.0,509.0
23951.0,501.0
23952.0,503.0
23953.0,501.0
23954.0,498.0
23955.000000000004,503.0
23956.0,508.0
23957.0,502.0
23958.000000000004,511.0
23959.0,519.0
23960.0,515.0
23961.000000000004,512.0
23962.0,519.0
23963.0,512.0
23964.000000000004,507.0
23965.0,508.0
23966.0,513.0
23967.0,506.0
23968.0,499.0
23969.0,502.0
23970.0,501.0
23971.0,498.0
23972.0,511.0
23973.0,506.0
23974.0,512.0
23975.0,515.0
23976.0,520.0
23977.0,512.0
23978.0,516.0
23979.0,521.0
23980.0,514.0
23981.0,510.0
23982.0,513.0
23983.0,502.0
23984.0,500.0
23985.0,506.0
23986.0,506.0
23987.000000000004,497.0
23988.0,504.0
23989.0,512.0
23990.000000000004,511.0
23991.0,512.0
23992.0,512.0
23993.000000000004,522.0
23994.0,511.0
23995.0,517.0
23996.000000000004,507.0
23997.0,508.0
23998.0,512.0
23999.0,509.0
