tiempo,valor
14000.0,503.0
14001.0,508.0
14002.0,499.0
14003.0,506.0
14004.0,512.0
14005.0,510.0
14006.0,511.0
14007.0,512.0
14008.0,511.0
14009.0,513.0
14010.0,511.0
14011.000000000002,519.0
14012.0,518.0
14013.0,510.0
14014.000000000002,504.0
14015.0,506.0
14016.0,507.0
14017.0,505.0
14018.0,504.0
14019.0,501.0
14020.0,505.0
14021.0,507.0
14022.0,513.0
14023.0,509.0
14024.0,511.0
14025.0,510.0
14026.0,516.0
14027.000000000002,510.0
14028.0,513.0
14029.0,510.0
14030.000000000002,512.0
14031.0,510.0
14032.0,507.0
14033.0,499.0
14034.0,505.0
14035.0,505.0
14036.0,504.0
14037.0,512.0
14038.0,508.0
14039.0,502.0
14040.000000000002,510.0
14041.0,517.0
14042.0,511.0
14043.000000000002,509.0
14044.0,510.0
14045.0,511.0
14046.000000000002,512.0
14047.0,512.0
14048.0,509.0
14049.0,509.0
14050.0,507.0
14051.0,501.0
14052.0,504.0
14053.0,507.0
14054.0,505.0
14055.0,512.0
14056.000000000002,506.0
14057.0,512.0
14058.0,512.0
14059.000000000002,517.0
14060.0,514.0
14061.0,511.0
14062.000000000002,514.0
14063.0,511.0
14064.0,520.0
14065.0,506.0
14066.0,505.0
14067.0,507.0
14068.0,507.0
14069.0,504.0
14070.0,506.0
14071.0,504.0
14072.000000000002,509.0
14073.0,512.0
14074.0,512.0
14075.000000000002,509.0
14076.0,510.0
14077.0,506.0
14078.000000000002,510.0
14079.0,508.0
14080.0,510.0
14081.0,511.0
14082.0,511.0
14083.0,503.0
14084.0,508.0
14085.0,500.0
14086.0,499.0
14087.0,502.0
14088.000000000002,514.0
14089.0,505.0
14090.0,514.0
14091.000000000002,515.0
14092.0,511.0
14093.0,513.0
14094.0,514.0
14095.0,512.0
14096.0,510.0
14097.0,514.0
14098.0,511.0
14099.0,496.0
14100.0,505.0
14101.0,512.0
14102.0,502.0
14103.0,503.0
14104.000000000002,507.0
14105.0,509.0
14106.0,514.0
14107.000000000002,514.0
14108.0,519.0
14109.0,507.0
14110.0,514.0
14111.0,512.0
14112.0,506.0
14113.0,510.0
14114.0,514.0
14115.0,512.0
14116.0,506.0
14117.0,505.0
14118.0,508.0
14119.0,503.0
14120.000000000002,501.0
14121.0,509.0
14122.0,511.0
14123.000000000002,506.0
14124.0,511.0
14125.0,503.0
14126.0,516.0
14127.0,515.0
14128.0,516.0
14129.0,507.0
14130.0,515.0
14131.0,511.0
14132.0,504.0
14133.0,500.0
14134.0,510.0
14135.0,497.0
14136.000000000002,504.0
14137.0,511.0
14138.0,511.0
14139.000000000002,506.0
14140.0,511.0
14141.0,512.0
14142.0,510.0
14143.0,508.0
14144.0,510.0
14145.0,504.0
14146.0,512.0
14147.0,506.0
14148.0,512.0
14149.0,504.0
14150.0,507.0
14151.0,510.0
14152.000000000002,503.0
14153.0,502.0
14154.0,503.0
14155.000000000002,512.0
14156.0,512.0
14157.0,519.0
14158.0,515.0
14159.0,508.0
14160.0,505.0
14161.0,515.0
14162.0,516.0
14163.0,511.0
14164.0,510.0
14165.000000000002,505.0
14166.0,506.0
14167.0,499.0
14168.000000000002,504.0
14169.0,498.0
14170.0,512.0
14171.000000000002,511.0
14172.0,509.0
14173.0,510.0
14174.0,518.0
14175.0,511.0
14176.0,504.0
14177.0,507.0
14178.0,511.0
14179.0,512.0
14180.0,507.0
14181.000000000002,514.0
14182.0,505.0
14183.0,503.0
14184.000000000002,502.0
14185.0,498.0
14186.0,504.0
14187.000000000002,502.0
14188.0,508.0
14189.0,505.0
14190.0,517.0
14191.0,516.0
14192.0,513.0
14193.0,515.0
14194.0,516.0
14195.0,518.0
14196.0,512.0
14197.000000000002,507.0
14198.0,505.0
14199.0,502.0
14200.000000000002,504.0
14201.0,499.0
14202.0,510.0
14203.000000000002,503.0
14204.0,509.0
14205.0,507.0
14206.0,510.0
14207.0,515.0
14208.0,522.0
14209.0,519.0
14210.0,507.0
14211.0,506.0
14212.0,515.0
14213.000000000002,514.0
14214.0,504.0
14215.0,504.0
14216.000000000002,504.0
14217.0,508.0
14218.0,503.0
14219.0,502.0
14220.0,507.0
14221.0,506.0
14222.0,506.0
14223.0,514.0
14224.0,512.0
14225.0,511.0
14226.0,513.0
14227.0,506.0
14228.0,512.0
14229.000000000002,509.0
14230.0,505.0
14231.0,512.0
14232.000000000002,506.0
14233.0,507.0
14234.0,509.0
14235.0,505.0
14236.0,506.0
14237.0,503.0
14238.0,506.0
14239.0,504.0
14240.0,505.0
14241.0,515.0
14242.0,515.0
14243.0,511.0
14244.0,515.0
14245.000000000002,516.0
14246.0,511.0
14247.0,504.0
14248.000000000002,503.0
14249.0,504.0
14250.0,503.0
14251.0,508.0
14252.0,506.0
14253.0,506.0
14254.0,510.0
14255.0,506.0
14256.0,510.0
14257.0,509.0
14258.0,513.0
14259.0,509.0
14260.0,510.0
14261.000000000002,515.0
14262.0,513.0
14263.0,512.0
14264.000000000002,504.0
14265.0,512.0
14266.0,508.0
14267.0,503.0
14268.0,505.0
14269.0,504.0
14270.0,505.0
14271.0,510.0
14272.0,510.0
14273.0,505.0
14274.0,515.0
14275.0,510.0
14276.0,510.0
14277.000000000002,511.0
14278.0,516.0
14279.0,510.0
14280.000000000002,507.0
14281.0,506.0
14282.0,506.0
14283.0,504.0
14284.0,498.0
14285.0,502.0
14286.0,499.0
14287.0,506.0
14288.0,507.0
14289.0,511.0
14290.000000000002,516.0
14291.0,512.0
14292.0,513.0
14293.000000000002,515.0
14294.0,521.0
14295.0,511.0
14296.000000000002,499.0
14297.0,506.0
14298.0,503.0
14299.0,498.0
14300.0,507.0
14301.0,510.0
14302.0,512.0
14303.0,496.0
14304.0,503.0
14305.0,516.0
14306.000000000002,517.0
14307.0,512.0
14308.0,517.0
14309.000000000002,511.0
14310.0,507.0
14311.0,518.0
14312.000000000002,512.0
14313.0,513.0
14314.0,506.0
14315.0,506.0
14316.0,505.0
14317.0,511.0
14318.0,500.0
14319.0,499.0
14320.0,501.0
14321.0,516.0
14322.000000000002,508.0
14323.0,519.0
14324.0,523.0
14325.000000000002,507.0
14326.0,509.0
14327.0,512.0
14328.000000000002,508.0
14329.0,510.0
14330.0,508.0
14331.0,510.0
14332.0,511.0
14333.0,504.0
14334.0,505.0
14335.0,501.0
14336.0,494.0
14337.0,514.0
14338.000000000002,505.0
14339.0,508.0
14340.0,508.0
14341.000000000002,510.0
14342.0,510.0
14343.0,513.0
14344.0,517.0
14345.0,510.0
14346.0,509.0
14347.0,510.0
14348.0,503.0
14349.0,512.0
14350.0,510.0
14351.0,511.0
14352.0,502.0
14353.0,504.0
14354.000000000002,512.0
14355.0,508.0
14356.0,519.0
14357.000000000002,517.0
14358.0,511.0
14359.0,513.0
14360.0,514.0
14361.0,510.0
14362.0,510.0
14363.0,510.0
14364.0,509.0
14365.0,502.0
14366.0,504.0
14367.0,510.0
14368.0,505.0
14369.0,503.0
14370.000000000002,505.0
14371.0,509.0
14372.0,507.0
14373.000000000002,506.0
14374.0,515.0
14375.0,513.0
14376.0,510.0
14377.0,511.0
14378.0,513.0
14379.0,507.0
14380.0,503.0
14381.0,510.0
14382.0,503.0
14383.0,502.0
14384.0,508.0
14385.0,505.0
14386.000000000002,505.0
14387.0,504.0
14388.0,507.0
14389.000000000002,511.0
14390.0,513.0
14391.0,511.0
14392.0,512.0
14393.0,512.0
14394.0,510.0
14395.0,504.0
14396.0,519.0
14397.0,513.0
14398.0,504.0
14399.0,503.0
14400.0,498.0
14401.0,510.0
14402.000000000002,504.0
14403.0,507.0
14404.0,509.0
14405.000000000002,509.0
14406.0,518.0
14407.0,512.0
14408.0,504.0
14409.0,515.0
14410.0,513.0
14411.0,517.0
14412.0,510.0
14413.0,514.0
14414.0,516.0
14415.000000000002,504.0
14416.0,508.0
14417.0,504.0
14418.000000000002,507.0
14419.0,502.0
14420.0,504.0
14421.000000000002,508.0
14422.0,506.0
14423.0,518.0
14424.0,510.0
14425.0,511.0
14426.0,514.0
14427.0,509.0
14428.0,511.0
14429.0,510.0
14430.0,511.0
14431.000000000002,504.0
14432.0,507.0
14433.0,505.0
14434.000000000002,506.0
14435.0,507.0
14436.0,499.0
14437.000000000002,507.0
14438.0,516.0
14439.0,515.0
14440.0,504.0
14441.0,512.0
14442.0,514.0
14443.0,519.0
14444.0,510.0
14445.0,507.0
14446.0,505.0
14447.000000000002,504.0
14448.0,513.0
14449.0,498.0
14450.000000000002,509.0
14451.0,502.0
14452.0,498.0
14453.000000000002,505.0
14454.0,511.0
14455.0,510.0
14456.0,507.0
14457.0,515.0
14458.0,518.0
14459.0,513.0
14460.0,513.0
14461.0,513.0
14462.0,513.0
14463.000000000002,510.0
14464.0,511.0
14465.0,511.0
14466.000000000002,515.0
14467.0,503.0
14468.0,502.0
14469.0,502.0
14470.0,504.0
14471.0,504.0
14472.0,517.0
14473.0,509.0
14474.0,508.0
14475.0,508.0
14476.0,519.0
14477.0,511.0
14478.0,515.0
14479.000000000002,512.0
14480.0,507.0
14481.0,513.0
14482.000000000002,504.0
14483.0,497.0
14484.0,505.0
14485.0,505.0
14486.0,503.0
14487.0,507.0
14488.0,511.0
14489.0,504.0
14490.0,509.0
14491.0,517.0
14492.0,518.0
14493.0,511.0
14494.0,515.0
14495.000000000002,508.0
14496.0,513.0
14497.0,509.0
14498.000000000002,508.0
14499.0,499.0
14500.0,495.0
14501.0,511.0
14502.0,505.0
14503.0,503.0
14504.0,506.0
14505.0,512.0
14506.0,516.0
14507.0,502.0
14508.0,510.0
14509.0,505.0
14510.0,515.0
14511.000000000002,517.0
14512.0,515.0
14513.0,514.0
14514.000000000002,510.0
14515.0,508.0
14516.0,501.0
14517.0,507.0
14518.0,505.0
14519.0,499.0
14520.0,501.0
14521.0,516.0
14522.0,512.0
14523.0,510.0
14524.0,507.0
14525.0,516.0
14526.0,508.0
14527.000000000002,513.0
14528.0,512.0
14529.0,508.0
14530.000000000002,507.0
14531.0,509.0
14532.0,508.0
14533.0,506.0
14534.0,503.0
14535.0,508.0
14536.0,497.0
14537.0,508.0
14538.0,510.0
14539.0,514.0
14540.000000000002,506.0
14541.0,510.0
14542.0,512.0
14543.000000000002,511.0
14544.0,511.0
14545.0,513.0
14546.000000000002,510.0
14547.0,510.0
14548.0,506.0
14549.0,508.0
14550.0,504.0
14551.0,510.0
14552.0,498.0
14553.0,507.0
14554.0,504.0
14555.0,507.0
14556.000000000002,505.0
14557.0,515.0
14558.0,510.0
14559.000000000002,511.0
14560.0,515.0
14561.0,512.0
14562.000000000002,512.0
14563.0,512.0
14564.0,507.0
14565.0,509.0
14566.0,504.0
14567.0,502.0
14568.0,502.0
14569.0,510.0
14570.0,507.0
14571.0,514.0
14572.000000000002,514.0
14573.0,512.0
14574.0,509.0
14575.000000000002,512.0
14576.0,515.0
14577.0,512.0
14578.000000000002,510.0
14579.0,506.0
14580.0,506.0
14581.0,510.0
14582.0,502.0
14583.0,502.0
14584.0,507.0
14585.0,504.0
14586.0,502.0
14587.0,505.0
14588.000000000002,513.0
14589.0,505.0
14590.0,510.0
14591.000000000002,517.0
14592.0,515.0
14593.0,511.0
14594.0,518.0
14595.0,515.0
14596.0,510.0
14597.0,511.0
14598.0,504.0
14599.0,499.0
14600.0,503.0
14601.0,503.0
14602.0,506.0
14603.0,507.0
14604.000000000002,509.0
14605.0,512.0
14606.0,518.0
14607.000000000002,515.0
14608.0,507.0
14609.0,507.0
14610.0,512.0
14611.0,514.0
14612.0,507.0
14613.0,508.0
14614.0,511.0
14615.0,506.0
14616.0,501.0
14617.0,504.0
14618.0,504.0
14619.0,502.0
14620.000000000002,501.0
14621.0,516.0
14622.0,514.0
14623.000000000002,509.0
14624.0,515.0
14625.0,509.0
14626.0,509.0
14627.0,511.0
14628.0,512.0
14629.0,504.0
14630.0,508.0
14631.0,510.0
14632.0,508.0
14633.0,505.0
14634.0,508.0
14635.0,504.0
14636.000000000002,503.0
14637.0,512.0
14638.0,514.0
14639.000000000002,512.0
14640.0,507.0
14641.0,517.0
14642.0,516.0
14643.0,512.0
14644.0,507.0
14645.0,508.0
14646.0,510.0
14647.0,508.0
14648.0,501.0
14649.0,503.0
14650.0,505.0
14651.0,517.0
14652.000000000002,504.0
14653.0,499.0
14654.0,499.0
14655.000000000002,505.0
14656.0,516.0
14657.0,514.0
14658.0,508.0
14659.0,518.0
14660.0,513.0
14661.0,516.0
14662.0,513.0
14663.0,505.0
14664.0,506.0
14665.000000000002,505.0
14666.0,502.0
14667.0,501.0
14668.000000000002,512.0
14669.0,501.0
14670.0,503.0
14671.000000000002,512.0
14672.0,503.0
14673.0,506.0
14674.0,514.0
14675.0,511.0
14676.0,514.0
14677.0,520.0
14678.0,511.0
14679.0,503.0
14680.0,512.0
14681.000000000002,509.0
14682.0,506.0
14683.0,504.0
14684.000000000002,505.0
14685.0,503.0
14686.0,494.0
14687.000000000002,504.0
14688.0,509.0
14689.0,514.0
14690.0,516.0
14691.0,511.0
14692.0,511.0
14693.0,506.0
14694.0,518.0
14695.0,513.0
14696.0,512.0
14697.000000000002,509.0
14698.0,508.0
14699.0,509.0
14700.000000000002,499.0
14701.0,505.0
14702.0,502.0
14703.000000000002,506.0
14704.0,507.0
14705.0,507.0
14706.0,505.0
14707.0,509.0
14708.0,510.0
14709.0,514.0
14710.0,516.0
14711.0,513.0
14712.0,508.0
14713.000000000002,512.0
14714.0,511.0
14715.0,508.0
14716.000000000002,509.0
14717.0,508.0
14718.0,504.0
14719.000000000002,499.0
14720.0,501.0
14721.0,508.0
14722.0,508.0
14723.0,518.0
14724.0,516.0
14725.0,511.0
14726.0,510.0
14727.0,514.0
14728.0,510.0
14729.000000000002,516.0
14730.0,508.0
14731.0,509.0
14732.000000000002,507.0
14733.0,497.0
14734.0,507.0
14735.0,506.0
14736.0,505.0
14737.0,504.0
14738.0,507.0
14739.0,512.0
14740.0,515.0
14741.0,510.0
14742.0,513.0
14743.0,511.0
14744.0,512.0
14745.000000000002,510.0
14746.0,507.0
14747.0,511.0
14748.000000000002,511.0
14749.0,501.0
14750.0,506.0
14751.0,503.0
14752.0,499.0
14753.0,501.0
14754.0,504.0
14755.0,509.0
14756.0,508.0
14757.0,515.0
14758.0,513.0
14759.0,516.0
14760.0,514.0
14761.000000000002,515.0
14762.0,503.0
14763.0,512.0
14764.000000000002,517.0
14765.0,508.0
14766.0,508.0
14767.0,499.0
14768.0,510.0
14769.0,504.0
14770.0,504.0
14771.0,512.0
14772.0,514.0
14773.0,514.0
14774.0,512.0
14775.0,507.0
14776.0,505.0
14777.000000000002,510.0
14778.0,515.0
14779.0,508.0
14780.000000000002,506.0
14781.0,507.0
14782.0,506.0
14783.0,504.0
14784.0,506.0
14785.0,504.0
14786.0,505.0
14787.0,514.0
14788.0,519.0
14789.0,515.0
14790.000000000002,511.0
14791.0,511.0
14792.0,516.0
14793.000000000002,513.0
14794.0,510.0
14795.0,508.0
14796.000000000002,504.0
14797.0,514.0
14798.0,508.0
14799.0,508.0
14800.0,496.0
14801.0,511.0
14802.0,499.0
14803.0,500.0
14804.0,505.0
14805.0,507.0
14806.000000000002,515.0
14807.0,510.0
14808.0,519.0
14809.000000000002,507.0
14810.0,507.0
14811.0,520.0
14812.000000000002,511.0
14813.0,505.0
14814.0,515.0
14815.0,504.0
14816.0,505.0
14817.0,510.0
14818.0,506.0
14819.0,499.0
14820.0,502.0
14821.0,505.0
14822.000000000002,510.0
14823.0,506.0
14824.0,515.0
14825.000000000002,509.0
14826.0,512.0
14827.0,510.0
14828.000000000002,519.0
14829.0,514.0
14830.0,522.0
14831.0,515.0
14832.0,497.0
14833.0,499.0
14834.0,502.0
14835.0,495.0
14836.0,504.0
14837.0,511.0
14838.000000000002,515.0
14839.0,513.0
14840.0,505.0
14841.000000000002,513.0
14842.0,509.0
14843.0,505.0
14844.000000000002,515.0
14845.0,519.0
14846.0,509.0
14847.0,512.0
14848.0,504.0
14849.0,506.0
14850.0,505.0
14851.0,508.0
14852.0,503.0
14853.0,510.0
14854.000000000002,503.0
14855.0,507.0
14856.0,504.0
14857.000000000002,507.0
14858.0,516.0
14859.0,521.0
14860.0,514.0
14861.0,518.0
14862.0,504.0
14863.0,510.0
14864.0,513.0
14865.0,500.0
14866.0,511.0
14867.0,508.0
14868.0,507.0
14869.0,504.0
14870.000000000002,494.0
14871.0,507.0
14872.0,505.0
14873.000000000002,509.0
14874.0,525.0
14875.0,515.0
14876.0,511.0
14877.0,512.0
14878.0,516.0
14879.0,513.0
14880.0,510.0
14881.0,508.0
14882.0,501.0
14883.0,504.0
14884.0,506.0
14885.0,504.0
14886.000000000002,502.0
14887.0,504.0
14888.0,508.0
14889.000000000002,517.0
14890.0,510.0
14891.0,517.0
14892.0,514.0
14893.0,510.0
14894.0,506.0
14895.0,515.0
14896.0,512.0
14897.0,512.0
14898.0,510.0
14899.0,504.0
14900.0,499.0
14901.0,509.0
14902.000000000002,499.0
14903.0,500.0
14904.0,503.0
14905.000000000002,511.0
14906.0,509.0
14907.0,514.0
14908.0,512.0
14909.0,514.0
14910.0,512.0
14911.0,515.0
14912.0,515.0
14913.0,511.0
14914.0,507.0
14915.000000000002,501.0
14916.0,512.0
14917.0,508.0
14918.000000000002,504.0
14919.0,500.0
14920.0,504.0
14921.000000000002,513.0
14922.0,502.0
14923.0,515.0
14924.0,516.0
14925.0,511.0
14926.0,517.0
14927.0,515.0
14928.0,506.0
14929.0,513.0
14930.0,507.0
14931.000000000002,516.0
14932.0,506.0
14933.0,511.0
14934.000000000002,504.0
14935.0,499.0
14936.0,502.0
14937.000000000002,500.0
14938.0,510.0
14939.0,510.0
14940.0,513.0
14941.0,518.0
14942.0,516.0
14943.0,504.0
14944.0,513.0
14945.0,513.0
14946.0,512.0
14947.000000000002,510.0
14948.0,513.0
14949.0,503.0
14950.000000000002,504.0
14951.0,504.0
14952.0,500.0
14953.000000000002,493.0
14954.0,506.0
14955.0,510.0
14956.0,518.0
14957.0,512.0
14958.0,508.0
14959.0,515.0
14960.0,511.0
14961.0,514.0
14962.0,512.0
14963.000000000002,505.0
14964.0,514.0
14965.0,507.0
14966.000000000002,504.0
14967.0,503.0
14968.0,506.0
14969.000000000002,502.0
14970.0,501.0
14971.0,512.0
14972.0,506.0
14973.0,516.0
14974.0,511.0
14975.0,511.0
14976.0,511.0
14977.0,515.0
14978.0,511.0
14979.000000000002,512.0
14980.0,510.0
14981.0,509.0
14982.000000000002,510.0
14983.0,504.0
14984.0,500.0
14985.0,496.0
14986.0,503.0
14987.0,505.0
14988.0,508.0
14989.0,510.0
14990.0,508.0
14991.0,513.0
14992.0,511.0
14993.0,516.0
14994.0,513.0
14995.000000000002,512.0
14996.0,506.0
14997.0,515.0
14998.000000000002,508.0
14999.0,507.0
15000.0,504.0
15001.0,507.0
15002.0,499.0
15003.0,501.0
15004.0,508.0
15005.0,507.0
15006.0,513.0
15007.0,513.0
15008.0,511.0
15009.0,505.0
15010.0,513.0
15011.000000000002,515.0
15012.0,512.0
15013.0,510.0
15014.000000000002,513.0
15015.0,506.0
15016.0,508.0
15017.0,504.0
15018.0,503.0
15019.0,500.0
15020.0,508.0
15021.0,516.0
15022.0,515.0
15023.0,513.0
15024.0,512.0
15025.0,508.0
15026.0,506.0
15027.000000000002,518.0
15028.0,517.0
15029.0,498.0
15030.000000000002,513.0
15031.0,518.0
15032.0,504.0
15033.0,509.0
15034.0,499.0
15035.0,510.0
15036.0,500.0
15037.0,505.0
15038.0,513.0
15039.0,511.0
15040.000000000002,508.0
15041.0,508.0
15042.0,507.0
15043.000000000002,508.0
15044.0,510.0
15045.0,510.0
15046.000000000002,502.0
15047.0,513.0
15048.0,514.0
15049.0,508.0
15050.0,507.0
15051.0,510.0
15052.0,496.0
15053.0,507.0
15054.0,506.0
15055.0,512.0
15056.000000000002,511.0
15057.0,508.0
15058.0,514.0
15059.000000000002,509.0
15060.0,515.0
15061.0,510.0
15062.000000000002,513.0
15063.0,517.0
15064.0,511.0
15065.0,504.0
15066.0,505.0
15067.0,506.0
15068.0,511.0
15069.0,501.0
15070.0,505.0
15071.0,507.0
15072.000000000002,506.0
15073.0,513.0
15074.0,509.0
15075.000000000002,516.0
15076.0,507.0
15077.0,512.0
15078.000000000002,512.0
15079.0,513.0
15080.0,512.0
15081.0,511.0
15082.0,504.0
15083.0,503.0
15084.0,507.0
15085.0,504.0
15086.0,509.0
15087.0,510.0
15088.000000000002,506.0
15089.0,507.0
15090.0,512.0
15091.000000000002,516.0
15092.0,512.0
15093.0,511.0
15094.000000000002,510.0
15095.0,512.0
15096.0,509.0
15097.0,512.0
15098.0,508.0
15099.0,502.0
15100.0,497.0
15101.0,514.0
15102.0,506.0
15103.0,502.0
15104.000000000002,508.0
15105.0,511.0
15106.0,512.0
15107.000000000002,515.0
15108.0,508.0
15109.0,508.0
15110.0,508.0
15111.0,519.0
15112.0,511.0
15113.0,506.0
15114.0,508.0
15115.0,512.0
15116.0,511.0
15117.0,507.0
15118.0,504.0
15119.0,496.0
15120.000000000002,505.0
15121.0,509.0
15122.0,510.0
15123.000000000002,504.0
15124.0,509.0
15125.0,510.0
15126.0,511.0
15127.0,518.0
15128.0,514.0
15129.0,511.0
15130.0,512.0
15131.0,508.0
15132.0,503.0
15133.0,502.0
15134.0,511.0
15135.0,500.0
15136.000000000002,498.0
15137.0,508.0
15138.0,515.0
15139.000000000002,512.0
15140.0,511.0
15141.0,513.0
15142.0,507.0
15143.0,514.0
15144.0,519.0
15145.0,516.0
15146.0,508.0
15147.0,514.0
15148.0,511.0
15149.0,498.0
15150.0,506.0
15151.0,511.0
15152.000000000002,496.0
15153.0,503.0
15154.0,505.0
15155.000000000002,511.0
15156.0,513.0
15157.0,509.0
15158.0,511.0
15159.0,511.0
15160.0,520.0
15161.0,514.0
15162.0,505.0
15163.0,511.0
15164.0,504.0
15165.000000000002,507.0
15166.0,508.0
15167.0,502.0
15168.000000000002,508.0
15169.0,497.0
15170.0,503.0
15171.000000000002,514.0
15172.0,510.0
15173.0,507.0
15174.0,505.0
15175.0,513.0
15176.0,523.0
15177.0,518.0
15178.0,517.0
15179.0,505.0
15180.0,508.0
15181.000000000002,508.0
15182.0,510.0
15183.0,503.0
15184.000000000002,502.0
15185.0,508.0
15186.0,502.0
15187.000000000002,502.0
15188.0,516.0
15189.0,508.0
15190.0,504.0
15191.0,511.0
15192.0,509.0
15193.0,517.0
15194.0,511.0
15195.0,508.0
15196.0,507.0
15197.000000000002,505.0
15198.0,514.0
15199.0,504.0
15200.000000000002,495.0
15201.0,508.0
15202.0,506.0
15203.000000000002,507.0
15204.0,513.0
15205.0,511.0
15206.0,515.0
15207.0,507.0
15208.0,512.0
15209.0,508.0
15210.0,511.0
15211.0,511.0
15212.0,512.0
15213.000000000002,511.0
15214.0,508.0
15215.0,508.0
15216.000000000002,504.0
15217.0,505.0
15218.0,505.0
15219.000000000002,501.0
15220.0,499.0
15221.0,507.0
15222.0,510.0
15223.0,512.0
15224.0,512.0
15225.0,513.0
15226.0,519.0
15227.0,518.0
15228.0,515.0
15229.000000000002,503.0
15230.0,512.0
15231.0,510.0
15232.000000000002,504.0
15233.0,500.0
15234.0,509.0
15235.0,508.0
15236.0,505.0
15237.0,505.0
15238.0,511.0
15239.0,508.0
15240.0,508.0
15241.0,518.0
15242.0,508.0
15243.0,511.0
15244.0,512.0
15245.000000000002,507.0
15246.0,509.0
15247.0,508.0
15248.000000000002,511.0
15249.0,499.0
15250.0,503.0
15251.0,502.0
15252.0,500.0
15253.0,502.0
15254.0,519.0
15255.0,505.0
15256.0,514.0
15257.0,519.0
15258.0,521.0
15259.0,509.0
15260.0,500.0
15261.000000000002,517.0
15262.0,510.0
15263.0,509.0
15264.000000000002,507.0
15265.0,507.0
15266.0,501.0
15267.0,512.0
15268.0,504.0
15269.0,508.0
15270.0,505.0
15271.0,511.0
15272.0,507.0
15273.0,503.0
15274.0,509.0
15275.0,517.0
15276.0,511.0
15277.000000000002,513.0
15278.0,513.0
15279.0,511.0
15280.000000000002,508.0
15281.0,508.0
15282.0,506.0
15283.0,502.0
15284.0,509.0
15285.0,508.0
15286.0,501.0
15287.0,510.0
15288.0,504.0
15289.0,511.0
15290.000000000002,511.0
15291.0,515.0
15292.0,510.0
15293.000000000002,505.0
15294.0,521.0
15295.0,514.0
15296.000000000002,511.0
15297.0,507.0
15298.0,507.0
15299.0,502.0
15300.0,508.0
15301.0,506.0
15302.0,506.0
15303.0,508.0
15304.0,513.0
15305.0,504.0
15306.000000000002,504.0
15307.0,507.0
15308.0,503.0
15309.000000000002,510.0
15310.0,510.0
15311.0,512.0
15312.000000000002,511.0
15313.0,510.0
15314.0,510.0
15315.0,505.0
15316.0,506.0
15317.0,507.0
15318.0,504.0
15319.0,507.0
15320.0,499.0
15321.0,507.0
15322.000000000002,505.0
15323.0,515.0
15324.0,512.0
15325.000000000002,511.0
15326.0,505.0
15327.0,514.0
15328.000000000002,517.0
15329.0,501.0
15330.0,508.0
15331.0,513.0
15332.0,510.0
15333.0,504.0
15334.0,510.0
15335.0,511.0
15336.0,502.0
15337.0,499.0
15338.000000000002,504.0
15339.0,508.0
15340.0,524.0
15341.000000000002,517.0
15342.0,512.0
15343.0,513.0
15344.000000000002,503.0
15345.0,504.0
15346.0,512.0
15347.0,510.0
15348.0,513.0
15349.0,502.0
15350.0,500.0
15351.0,510.0
15352.0,504.0
15353.0,504.0
15354.000000000002,502.0
15355.0,504.0
15356.0,513.0
15357.000000000002,513.0
15358.0,515.0
15359.0,514.0
15360.0,515.0
15361.0,516.0
15362.0,503.0
15363.0,504.0
15364.0,513.0
15365.0,511.0
15366.0,503.0
15367.0,504.0
15368.0,506.0
15369.0,504.0
15370.000000000002,504.0
15371.0,515.0
15372.0,508.0
15373.000000000002,509.0
15374.0,511.0
15375.0,509.0
15376.0,507.0
15377.0,524.0
15378.0,513.0
15379.0,510.0
15380.0,500.0
15381.0,511.0
15382.0,514.0
15383.0,502.0
15384.0,502.0
15385.0,504.0
15386.000000000002,506.0
15387.0,505.0
15388.0,512.0
15389.000000000002,509.0
15390.0,513.0
15391.0,512.0
15392.0,507.0
15393.0,510.0
15394.0,510.0
15395.0,512.0
15396.0,512.0
15397.0,509.0
15398.0,507.0
15399.0,504.0
15400.0,500.0
15401.0,505.0
15402.000000000002,501.0
15403.0,497.0
15404.0,508.0
15405.000000000002,517.0
15406.0,513.0
15407.0,509.0
15408.0,505.0
15409.0,520.0
15410.0,515.0
15411.0,516.0
15412.0,508.0
15413.0,508.0
15414.0,512.0
15415.000000000002,508.0
15416.0,499.0
15417.0,499.0
15418.000000000002,497.0
15419.0,501.0
15420.0,506.0
15421.000000000002,512.0
15422.0,516.0
15423.0,511.0
15424.0,515.0
15425.0,510.0
15426.0,511.0
15427.0,520.0
15428.0,513.0
15429.0,510.0
15430.0,512.0
15431.000000000002,517.0
15432.0,502.0
15433.0,503.0
15434.000000000002,501.0
15435.0,498.0
15436.0,504.0
15437.000000000002,506.0
15438.0,511.0
15439.0,511.0
15440.0,511.0
15441.0,516.0
15442.0,506.0
15443.0,510.0
15444.0,507.0
15445.0,507.0
15446.0,517.0
15447.000000000002,512.0
15448.0,501.0
15449.0,502.0
15450.000000000002,505.0
15451.0,503.0
15452.0,505.0
15453.000000000002,499.0
15454.0,504.0
15455.0,510.0
15456.0,515.0
15457.0,515.0
15458.0,512.0
15459.0,513.0
15460.0,510.0
15461.0,511.0
15462.0,512.0
15463.000000000002,511.0
15464.0,510.0
15465.0,509.0
15466.000000000002,497.0
15467.0,497.0
15468.0,509.0
15469.000000000002,502.0
15470.0,504.0
15471.0,510.0
15472.0,517.0
15473.0,515.0
15474.0,512.0
15475.0,509.0
15476.0,508.0
15477.0,513.0
15478.0,517.0
15479.000000000002,509.0
15480.0,502.0
15481.0,514.0
15482.000000000002,501.0
15483.0,509.0
15484.0,505.0
15485.000000000002,502.0
15486.0,507.0
15487.0,503.0
15488.0,511.0
15489.0,508.0
15490.0,514.0
15491.0,518.0
15492.0,513.0
15493.0,506.0
15494.0,513.0
15495.000000000002,519.0
15496.0,511.0
15497.0,511.0
15498.000000000002,504.0
15499.0,499.0
15500.0,505.0
15501.0,502.0
15502.0,504.0
15503.0,508.0
15504.0,507.0
15505.0,499.0
15506.0,515.0
15507.0,511.0
15508.0,516.0
15509.0,509.0
15510.0,514.0
15511.000000000002,516.0
15512.0,511.0
15513.0,507.0
15514.000000000002,503.0
15515.0,504.0
15516.0,505.0
15517.0,506.0
15518.0,507.0
15519.0,508.0
15520.0,507.0
15521.0,503.0
15522.0,515.0
15523.0,511.0
15524.0,515.0
15525.0,513.0
15526.0,518.0
15527.000000000002,513.0
15528.0,514.0
15529.0,511.0
15530.000000000002,509.0
15531.0,509.0
15532.0,504.0
15533.0,505.0
15534.0,506.0
15535.0,510.0
15536.0,500.0
15537.0,509.0
15538.0,512.0
15539.0,504.0
15540.000000000002,512.0
15541.0,517.0
15542.0,508.0
15543.000000000002,515.0
15544.0,512.0
15545.0,503.0
15546.000000000002,511.0
15547.0,510.0
15548.0,504.0
15549.0,506.0
15550.0,500.0
15551.0,510.0
15552.0,511.0
15553.0,506.0
15554.0,503.0
15555.0,511.0
15556.000000000002,507.0
15557.0,507.0
15558.0,508.0
15559.000000000002,510.0
15560.0,510.0
15561.0,519.0
15562.000000000002,509.0
15563.0,511.0
15564.0,513.0
15565.0,506.0
15566.0,510.0
15567.0,504.0
15568.0,505.0
15569.0,500.0
15570.0,499.0
15571.0,505.0
15572.000000000002,510.0
15573.0,508.0
15574.0,508.0
15575.000000000002,518.0
15576.0,515.0
15577.0,506.0
15578.000000000002,512.0
15579.0,511.0
15580.0,507.0
15581.0,514.0
15582.0,509.0
15583.0,511.0
15584.0,509.0
15585.0,494.0
15586.0,499.0
15587.0,503.0
15588.000000000002,505.0
15589.0,512.0
15590.0,512.0
15591.000000000002,508.0
15592.0,513.0
15593.0,516.0
15594.000000000002,512.0
15595.0,515.0
15596.0,508.0
15597.0,510.0
15598.0,514.0
15599.0,508.0
15600.0,505.0
15601.0,504.0
15602.0,508.0
15603.0,505.0
15604.000000000002,498.0
15605.0,509.0
15606.0,507.0
15607.000000000002,506.0
15608.0,512.0
15609.0,508.0
15610.000000000002,513.0
15611.0,513.0
15612.0,508.0
15613.0,510.0
15614.0,514.0
15615.0,511.0
15616.0,507.0
15617.0,499.0
15618.0,512.0
15619.0,507.0
15620.000000000002,499.0
15621.0,505.0
15622.0,505.0
15623.000000000002,511.0
15624.0,515.0
15625.0,514.0
15626.0,516.0
15627.0,510.0
15628.0,515.0
15629.0,509.0
15630.0,513.0
15631.0,512.0
15632.0,508.0
15633.0,504.0
15634.0,502.0
15635.0,507.0
15636.000000000002,502.0
15637.0,501.0
15638.0,510.0
15639.000000000002,509.0
15640.0,509.0
15641.0,511.0
15642.0,512.0
15643.0,509.0
15644.0,516.0
15645.0,517.0
15646.0,511.0
15647.0,512.0
15648.0,508.0
15649.0,502.0
15650.0,505.0
15651.0,509.0
15652.000000000002,507.0
15653.0,497.0
15654.0,501.0
15655.000000000002,505.0
15656.0,521.0
15657.0,510.0
15658.0,509.0
15659.0,511.0
15660.0,505.0
15661.0,504.0
15662.0,515.0
15663.0,507.0
15664.0,508.0
15665.000000000002,511.0
15666.0,506.0
15667.0,502.0
15668.000000000002,508.0
15669.0,498.0
15670.0,511.0
15671.000000000002,512.0
15672.0,511.0
15673.0,505.0
15674.0,514.0
15675.0,516.0
15676.0,513.0
15677.0,517.0
15678.0,510.0
15679.0,506.0
15680.0,511.0
15681.000000000002,511.0
15682.0,507.0
15683.0,508.0
15684.000000000002,501.0
15685.0,503.0
15686.0,507.0
15687.000000000002,502.0
15688.0,510.0
15689.0,509.0
15690.0,512.0
15691.0,515.0
15692.0,515.0
15693.0,512.0
15694.0,509.0
15695.0,506.0
15696.0,505.0
15697.000000000002,514.0
15698.0,510.0
15699.0,502.0
15700.000000000002,508.0
15701.0,504.0
15702.0,497.0
15703.000000000002,504.0
15704.0,504.0
15705.0,507.0
15706.0,509.0
15707.0,515.0
15708.0,512.0
15709.0,516.0
15710.0,511.0
15711.0,511.0
15712.0,510.0
15713.000000000002,507.0
15714.0,508.0
15715.0,508.0
15716.000000000002,505.0
15717.0,503.0
15718.0,503.0
15719.000000000002,505.0
15720.0,503.0
15721.0,515.0
15722.0,508.0
15723.0,513.0
15724.0,509.0
15725.0,512.0
15726.0,513.0
15727.0,510.0
15728.0,512.0
15729.000000000002,509.0
15730.0,508.0
15731.0,514.0
15732.000000000002,507.0
15733.0,505.0
15734.0,511.0
15735.000000000002,508.0
15736.0,510.0
15737.0,506.0
15738.0,504.0
15739.0,508.0
15740.0,503.0
15741.0,508.0
15742.0,508.0
15743.0,517.0
15744.0,520.0
15745.000000000002,511.0
15746.0,511.0
15747.0,510.0
15748.000000000002,519.0
15749.0,505.0
15750.0,503.0
15751.0,502.0
15752.0,503.0
15753.0,497.0
15754.0,500.0
15755.0,505.0
15756.0,511.0
15757.0,512.0
15758.0,508.0
15759.0,504.0
15760.0,514.0
15761.000000000002,515.0
15762.0,516.0
15763.0,508.0
15764.000000000002,508.0
15765.0,513.0
15766.0,498.0
15767.0,500.0
15768.0,502.0
15769.0,498.0
15770.0,508.0
15771.0,514.0
15772.0,512.0
15773.0,508.0
15774.0,511.0
15775.0,511.0
15776.0,513.0
15777.000000000002,517.0
15778.0,512.0
15779.0,506.0
15780.000000000002,503.0
15781.0,509.0
15782.0,511.0
15783.0,510.0
15784.0,504.0
15785.0,505.0
15786.0,506.0
15787.0,508.0
15788.0,508.0
15789.0,512.0
15790.000000000002,507.0
15791.0,512.0
15792.0,510.0
15793.000000000002,511.0
15794.0,510.0
15795.0,511.0
15796.000000000002,510.0
15797.0,514.0
15798.0,508.0
15799.0,505.0
15800.0,500.0
15801.0,511.0
15802.0,503.0
15803.0,499.0
15804.0,510.0
15805.0,510.0
15806.000000000002,509.0
15807.0,503.0
15808.0,516.0
15809.000000000002,512.0
15810.0,511.0
15811.0,517.0
15812.000000000002,508.0
15813.0,509.0
15814.0,509.0
15815.0,511.0
15816.0,511.0
15817.0,506.0
15818.0,502.0
15819.0,503.0
15820.0,503.0
15821.0,502.0
15822.000000000002,516.0
15823.0,509.0
15824.0,516.0
15825.000000000002,508.0
15826.0,513.0
15827.0,508.0
15828.000000000002,508.0
15829.0,511.0
15830.0,507.0
15831.0,510.0
15832.0,514.0
15833.0,503.0
15834.0,501.0
15835.0,509.0
15836.0,505.0
15837.0,502.0
15838.000000000002,512.0
15839.0,513.0
15840.0,504.0
15841.000000000002,514.0
15842.0,515.0
15843.0,509.0
15844.000000000002,511.0
15845.0,511.0
15846.0,512.0
15847.0,512.0
15848.0,513.0
15849.0,500.0
15850.0,499.0
15851.0,506.0
15852.0,508.0
15853.0,502.0
15854.000000000002,507.0
15855.0,507.0
15856.0,509.0
15857.000000000002,512.0
15858.0,515.0
15859.0,508.0
15860.000000000002,510.0
15861.0,525.0
15862.0,510.0
15863.0,506.0
15864.0,511.0
15865.0,515.0
15866.0,497.0
15867.0,498.0
15868.0,504.0
15869.0,504.0
15870.000000000002,504.0
15871.0,508.0
15872.0,509.0
15873.000000000002,510.0
15874.0,514.0
15875.0,516.0
15876.0,517.0
15877.0,512.0
15878.0,507.0
15879.0,510.0
15880.0,508.0
15881.0,511.0
15882.0,508.0
15883.0,513.0
15884.0,505.0
15885.0,503.0
15886.000000000002,503.0
15887.0,504.0
15888.0,506.0
15889.000000000002,505.0
15890.0,510.0
15891.0,517.0
15892.0,510.0
15893.0,510.0
15894.0,511.0
15895.0,515.0
15896.0,510.0
15897.0,514.0
15898.0,507.0
15899.0,512.0
15900.0,504.0
15901.0,508.0
15902.000000000002,499.0
15903.0,507.0
15904.0,509.0
15905.000000000002,508.0
15906.0,510.0
15907.0,510.0
15908.0,510.0
15909.0,511.0
15910.0,508.0
15911.0,514.0
15912.0,508.0
15913.0,508.0
15914.0,512.0
15915.000000000002,514.0
15916.0,509.0
15917.0,511.0
15918.000000000002,500.0
15919.0,498.0
15920.0,499.0
15921.000000000002,506.0
15922.0,507.0
15923.0,515.0
15924.0,508.0
15925.0,508.0
15926.0,513.0
15927.0,511.0
15928.0,511.0
15929.0,515.0
15930.0,510.0
15931.000000000002,519.0
15932.0,512.0
15933.0,510.0
15934.000000000002,507.0
15935.0,503.0
15936.0,495.0
15937.000000000002,499.0
15938.0,509.0
15939.0,513.0
15940.0,505.0
15941.0,518.0
15942.0,512.0
15943.0,512.0
15944.0,504.0
15945.0,508.0
15946.0,507.0
15947.000000000002,517.0
15948.0,511.0
15949.0,509.0
15950.000000000002,504.0
15951.0,507.0
15952.0,505.0
15953.000000000002,502.0
15954.0,503.0
15955.0,505.0
15956.0,509.0
15957.0,506.0
15958.0,517.0
15959.0,513.0
15960.0,509.0
15961.0,519.0
15962.0,511.0
15963.000000000002,508.0
15964.0,503.0
15965.0,509.0
15966.000000000002,507.0
15967.0,508.0
15968.0,501.0
15969.000000000002,500.0
15970.0,499.0
15971.0,512.0
15972.0,515.0
15973.0,505.0
15974.0,512.0
15975.0,517.0
15976.0,506.0
15977.0,509.0
15978.0,519.0
15979.000000000002,505.0
15980.0,511.0
15981.0,513.0
15982.000000000002,506.0
15983.0,504.0
15984.0,504.0
15985.000000000002,504.0
15986.0,504.0
15987.0,504.0
15988.0,506.0
15989.0,509.0
15990.0,506.0
15991.0,509.0
15992.0,508.0
15993.0,517.0
15994.0,518.0
15995.000000000002,519.0
15996.0,505.0
15997.0,510.0
15998.000000000002,511.0
15999.0,510.0
