timestamp,valores
0.0,25.806451612903224
1.0000107528037936,35.483870967741936
2.000021505607587,41.935483870967744
3.0000322584113808,45.16129032258064
4.000043011215174,38.70967741935483
5.000053764018968,41.935483870967744
6.0000645168227615,38.70967741935483
7.000075269626555,41.935483870967744
8.000086022430349,51.61290322580645
9.000096775234143,54.83870967741935
10.000107528037937,45.16129032258064
11.000118280841729,16.129032258064516
12.000129033645523,0.0
13.000139786449317,6.451612903225806
14.00015053925311,16.129032258064516
15.000161292056903,45.16129032258064
16.000172044860697,87.09677419354838
17.00018279766449,106.4516129032258
18.000193550468286,103.2258064516129
19.000204303272078,83.87096774193549
20.000215056075874,64.51612903225806
21.000225808879666,48.387096774193544
22.000236561683458,25.806451612903224
23.000247314487254,-6.451612903225806
24.000258067291046,-32.25806451612903
25.00026882009484,9.677419354838708
26.000279572898634,38.70967741935483
27.000290325702426,48.387096774193544
28.00030107850622,29.03225806451613
29.000311831310015,19.354838709677416
30.000322584113807,19.354838709677416
31.000333336917603,25.806451612903224
32.000344089721395,22.58064516129032
33.00035484252519,12.903225806451612
34.00036559532898,9.677419354838708
35.000376348132775,-12.903225806451612
36.00038710093657,-19.354838709677416
37.00039785374036,-6.451612903225806
38.000408606544156,-12.903225806451612
39.00041935934795,-22.58064516129032
40.00043011215175,-38.70967741935483
41.000440864955536,-54.83870967741935
42.00045161775933,-54.83870967741935
43.00046237056313,-35.483870967741936
44.000473123366916,-6.451612903225806
45.00048387617071,12.903225806451612
46.00049462897451,25.806451612903224
47.0005053817783,51.61290322580645
48.00051613458209,67.74193548387096
49.00052688738589,77.41935483870967
50.00053764018968,77.41935483870967
51.00054839299347,83.87096774193549
52.00055914579727,90.32258064516128
53.00056989860106,93.54838709677418
54.00058065140485,77.41935483870967
55.00059140420865,77.41935483870967
56.00060215701244,61.29032258064516
57.00061290981623,35.483870967741936
58.00062366262003,3.225806451612903
59.000634415423825,-32.25806451612903
60.000645168227614,-51.61290322580645
61.00065592103141,-58.06451612903226
62.000666673835205,-54.83870967741935
63.000677426638994,-38.70967741935483
64.00068817944279,6.451612903225806
65.00069893224658,45.16129032258064
66.00070968505038,54.83870967741935
67.00072043785417,54.83870967741935
68.00073119065796,54.83870967741935
69.00074194346176,48.387096774193544
70.00075269626555,32.25806451612903
71.00076344906934,6.451612903225806
72.00077420187314,-25.806451612903224
73.00078495467693,-48.387096774193544
74.00079570748072,-70.96774193548387
75.00080646028452,-80.64516129032258
76.00081721308831,-67.74193548387096
77.0008279658921,-45.16129032258064
78.0008387186959,-16.129032258064516
79.00084947149969,16.129032258064516
80.0008602243035,45.16129032258064
81.00087097710728,45.16129032258064
82.00088172991107,35.483870967741936
83.00089248271487,51.61290322580645
84.00090323551866,70.96774193548387
85.00091398832245,77.41935483870967
86.00092474112625,96.77419354838709
87.00093549393004,83.87096774193549
88.00094624673383,61.29032258064516
89.00095699953764,38.70967741935483
90.00096775234142,9.677419354838708
91.00097850514521,-9.677419354838708
92.00098925794902,-45.16129032258064
93.0010000107528,-70.96774193548387
94.0010107635566,-93.54838709677418
95.0010215163604,-90.32258064516128
96.00103226916418,-74.19354838709677
97.00104302196797,-58.06451612903226
98.00105377477178,-41.935483870967744
99.00106452757556,-29.03225806451613
100.00107528037935,3.225806451612903
101.00108603318316,35.483870967741936
102.00109678598695,45.16129032258064
103.00110753879073,41.935483870967744
104.00111829159454,6.451612903225806
105.00112904439833,-25.806451612903224
106.00113979720211,-19.354838709677416
107.00115055000592,-41.935483870967744
108.0011613028097,-67.74193548387096
109.0011720556135,-93.54838709677418
110.0011828084173,-99.99999999999999
111.00119356122109,-83.87096774193549
112.00120431402487,-58.06451612903226
113.00121506682868,-35.483870967741936
114.00122581963247,-38.70967741935483
115.00123657243627,-48.387096774193544
116.00124732524006,-38.70967741935483
117.00125807804385,-38.70967741935483
118.00126883084765,-22.58064516129032
119.00127958365144,9.677419354838708
120.00129033645523,25.806451612903224
121.00130108925903,45.16129032258064
122.00131184206282,58.06451612903226
123.00132259486661,32.25806451612903
124.00133334767041,-25.806451612903224
125.0013441004742,-70.96774193548387
126.00135485327799,-83.87096774193549
127.00136560608179,-103.2258064516129
128.00137635888558,-129.03225806451613
129.00138711168938,-109.6774193548387
130.00139786449316,-77.41935483870967
131.00140861729696,-64.51612903225806
132.00141937010076,-48.387096774193544
133.00143012290454,-35.483870967741936
134.00144087570834,-41.935483870967744
135.00145162851214,-35.483870967741936
136.00146238131592,-16.129032258064516
137.00147313411972,-3.225806451612903
138.00148388692352,-16.129032258064516
139.0014946397273,-35.483870967741936
140.0015053925311,-48.387096774193544
141.0015161453349,-61.29032258064516
142.00152689813868,-70.96774193548387
143.00153765094248,-61.29032258064516
144.00154840374628,-61.29032258064516
145.00155915655006,-48.387096774193544
146.00156990935386,-25.806451612903224
147.00158066215766,9.677419354838708
148.00159141496144,35.483870967741936
149.00160216776524,77.41935483870967
150.00161292056904,138.70967741935482
151.00162367337282,187.09677419354836
152.00163442617662,232.25806451612905
153.00164517898043,293.54838709677415
154.0016559317842,354.83870967741933
155.001666684588,396.77419354838713
156.0016774373918,435.4838709677419
157.00168819019558,467.741935483871
158.00169894299938,480.64516129032256
159.00170969580319,490.3225806451613
160.001720448607,503.22580645161287
161.00173120141076,509.67741935483866
162.00174195421457,529.032258064516
163.00175270701837,583.8709677419355
164.00176345982214,632.258064516129
165.00177421262595,674.1935483870968
166.00178496542975,700.0
167.00179571823352,703.2258064516129
168.00180647103733,703.2258064516129
169.00181722384113,693.5483870967741
170.0018279766449,670.9677419354839
171.0018387294487,635.4838709677418
172.0018494822525,580.6451612903227
173.00186023505628,535.4838709677418
174.0018709878601,467.741935483871
175.0018817406639,364.51612903225805
176.00189249346766,267.7419354838709
177.00190324627147,193.54838709677418
178.00191399907527,135.48387096774192
179.00192475187905,90.32258064516128
180.00193550468285,51.61290322580645
181.00194625748665,3.225806451612903
182.00195701029043,-41.935483870967744
183.00196776309423,-99.99999999999999
184.00197851589803,-167.74193548387098
185.0019892687018,-232.25806451612905
186.0020000215056,-296.7741935483871
187.0020107743094,-341.93548387096774
188.0020215271132,-374.1935483870967
189.002032279917,-390.3225806451613
190.0020430327208,-380.64516129032256
191.00205378552457,-361.2903225806451
192.00206453832837,-364.51612903225805
193.00207529113217,-377.41935483870964
194.00208604393595,-374.1935483870967
195.00209679673975,-364.51612903225805
196.00210754954355,-322.5806451612903
197.00211830234733,-283.8709677419355
198.00212905515113,-248.38709677419354
199.00213980795493,-196.7741935483871
200.0021505607587,-151.61290322580646
201.0021613135625,-135.48387096774192
202.0021720663663,-119.35483870967742
203.0021828191701,-103.2258064516129
204.0021935719739,-103.2258064516129
205.0022043247777,-106.4516129032258
206.00221507758147,-125.80645161290322
207.00222583038527,-132.258064516129
208.00223658318907,-154.83870967741933
209.00224733599285,-196.7741935483871
210.00225808879665,-203.2258064516129
211.00226884160045,-199.99999999999997
212.00227959440423,-203.2258064516129
213.00229034720803,-193.54838709677418
214.00230110001183,-187.09677419354836
215.0023118528156,-183.8709677419355
216.0023226056194,-174.19354838709677
217.00233335842321,-148.38709677419354
218.002344111227,-103.2258064516129
219.0023548640308,-77.41935483870967
220.0023656168346,-64.51612903225806
221.00237636963837,-67.74193548387096
222.00238712244217,-67.74193548387096
223.00239787524598,-90.32258064516128
224.00240862804975,-119.35483870967742
225.00241938085355,-135.48387096774192
226.00243013365736,-141.93548387096774
227.00244088646116,-141.93548387096774
228.00245163926493,-145.16129032258067
229.00246239206874,-129.03225806451613
230.00247314487254,-106.4516129032258
231.0024838976763,-96.77419354838709
232.00249465048012,-106.4516129032258
233.00250540328392,-119.35483870967742
234.0025161560877,-132.258064516129
235.0025269088915,-129.03225806451613
236.0025376616953,-132.258064516129
237.00254841449907,-138.70967741935482
238.00255916730288,-151.61290322580646
239.00256992010668,-161.29032258064515
240.00258067291045,-167.74193548387098
241.00259142571426,-174.19354838709677
242.00260217851806,-190.32258064516128
243.00261293132183,-196.7741935483871
244.00262368412564,-183.8709677419355
245.00263443692944,-148.38709677419354
246.00264518973322,-122.58064516129032
247.00265594253702,-112.9032258064516
248.00266669534082,-103.2258064516129
249.0026774481446,-93.54838709677418
250.0026882009484,-64.51612903225806
251.0026989537522,-64.51612903225806
252.00270970655598,-83.87096774193549
253.00272045935978,-77.41935483870967
254.00273121216358,-58.06451612903226
255.00274196496736,-41.935483870967744
256.00275271777116,-35.483870967741936
257.00276347057496,-29.03225806451613
258.00277422337876,-35.483870967741936
259.00278497618257,-64.51612903225806
260.0027957289863,-87.09677419354838
261.0028064817901,-83.87096774193549
262.0028172345939,-77.41935483870967
263.0028279873977,-70.96774193548387
264.0028387402015,-61.29032258064516
265.00284949300533,-67.74193548387096
266.0028602458091,-48.387096774193544
267.0028709986129,12.903225806451612
268.0028817514167,54.83870967741935
269.0028925042205,61.29032258064516
270.0029032570243,58.06451612903226
271.0029140098281,45.16129032258064
272.00292476263184,22.58064516129032
273.00293551543564,0.0
274.00294626823944,3.225806451612903
275.00295702104324,12.903225806451612
276.00296777384705,-3.225806451612903
277.00297852665085,-35.483870967741936
278.0029892794546,-61.29032258064516
279.0030000322584,-80.64516129032258
280.0030107850622,-83.87096774193549
281.003021537866,-83.87096774193549
282.0030322906698,-64.51612903225806
283.0030430434736,-45.16129032258064
284.00305379627736,-22.58064516129032
285.00306454908116,-6.451612903225806
286.00307530188496,-6.451612903225806
287.00308605468877,0.0
288.00309680749257,0.0
289.00310756029637,-16.129032258064516
290.0031183131001,-29.03225806451613
291.0031290659039,-48.387096774193544
292.0031398187077,-83.87096774193549
293.0031505715115,-90.32258064516128
294.00316132431533,-83.87096774193549
295.00317207711913,-74.19354838709677
296.0031828299229,-58.06451612903226
297.0031935827267,-35.483870967741936
298.0032043355305,-19.354838709677416
299.0032150883343,-32.25806451612903
300.0032258411381,-35.483870967741936
301.0032365939419,-22.58064516129032
302.00324734674564,0.0
303.00325809954944,9.677419354838708
304.00326885235324,-6.451612903225806
305.00327960515705,-22.58064516129032
306.00329035796085,-29.03225806451613
307.00330111076465,-35.483870967741936
308.0033118635684,-25.806451612903224
309.0033226163722,-32.25806451612903
310.003333369176,-58.06451612903226
311.0033441219798,-64.51612903225806
312.0033548747836,-54.83870967741935
313.0033656275874,-45.16129032258064
314.00337638039116,-32.25806451612903
315.00338713319496,0.0
316.00339788599877,35.483870967741936
317.00340863880257,74.19354838709677
318.00341939160637,106.4516129032258
319.0034301444102,77.41935483870967
320.003440897214,35.483870967741936
321.0034516500177,35.483870967741936
322.0034624028215,38.70967741935483
323.00347315562533,35.483870967741936
324.00348390842913,12.903225806451612
325.00349466123293,-9.677419354838708
326.00350541403674,-32.25806451612903
327.0035161668405,-32.25806451612903
328.0035269196443,-22.58064516129032
329.0035376724481,-3.225806451612903
330.0035484252519,9.677419354838708
331.0035591780557,19.354838709677416
332.0035699308595,25.806451612903224
333.00358068366324,25.806451612903224
334.00359143646705,16.129032258064516
335.00360218927085,29.03225806451613
336.00361294207465,45.16129032258064
337.00362369487846,35.483870967741936
338.00363444768226,16.129032258064516
339.003645200486,3.225806451612903
340.0036559532898,3.225806451612903
341.0036667060936,9.677419354838708
342.0036774588974,32.25806451612903
343.0036882117012,41.935483870967744
344.003698964505,45.16129032258064
345.00370971730877,38.70967741935483
346.00372047011257,25.806451612903224
347.0037312229164,12.903225806451612
348.0037419757202,29.03225806451613
349.003752728524,61.29032258064516
350.0037634813278,58.06451612903226
351.0037742341315,51.61290322580645
352.00378498693533,54.83870967741935
353.00379573973913,64.51612903225806
354.00380649254294,80.64516129032258
355.00381724534674,99.99999999999999
356.00382799815054,112.9032258064516
357.0038387509543,93.54838709677418
358.0038495037581,70.96774193548387
359.0038602565619,58.06451612903226
360.0038710093657,45.16129032258064
361.0038817621695,41.935483870967744
362.0038925149733,45.16129032258064
363.00390326777705,70.96774193548387
364.00391402058085,103.2258064516129
365.00392477338465,116.12903225806453
366.00393552618846,125.80645161290322
367.00394627899226,129.03225806451613
368.00395703179606,132.258064516129
369.0039677845998,132.258064516129
370.0039785374036,132.258064516129
371.0039892902074,122.58064516129032
372.0040000430112,112.9032258064516
373.004010795815,103.2258064516129
374.0040215486188,96.77419354838709
375.00403230142257,96.77419354838709
376.0040430542264,93.54838709677418
377.0040538070302,87.09677419354838
378.004064559834,93.54838709677418
379.0040753126378,99.99999999999999
380.0040860654416,116.12903225806453
381.00409681824533,125.80645161290322
382.00410757104913,132.258064516129
383.00411832385294,151.61290322580646
384.00412907665674,158.06451612903226
385.00413982946054,154.83870967741933
386.00415058226434,151.61290322580646
387.00416133506815,138.70967741935482
388.0041720878719,132.258064516129
389.0041828406757,125.80645161290322
390.0041935934795,106.4516129032258
391.0042043462833,103.2258064516129
392.0042150990871,103.2258064516129
393.0042258518909,96.77419354838709
394.00423660469465,90.32258064516128
395.00424735749846,80.64516129032258
396.00425811030226,64.51612903225806
397.00426886310606,64.51612903225806
398.00427961590987,67.74193548387096
399.00429036871367,87.09677419354838
400.0043011215174,106.4516129032258
401.0043118743212,119.35483870967742
402.004322627125,116.12903225806453
403.0043333799288,119.35483870967742
404.0043441327326,119.35483870967742
405.00435488553643,93.54838709677418
406.0043656383402,54.83870967741935
407.004376391144,25.806451612903224
408.0043871439478,6.451612903225806
409.0043978967516,19.354838709677416
410.0044086495554,41.935483870967744
411.0044194023592,70.96774193548387
412.00443015516294,83.87096774193549
413.00444090796674,80.64516129032258
414.00445166077054,70.96774193548387
415.00446241357434,61.29032258064516
416.00447316637815,48.387096774193544
417.00448391918195,54.83870967741935
418.0044946719857,54.83870967741935
419.0045054247895,61.29032258064516
420.0045161775933,93.54838709677418
421.0045269303971,116.12903225806453
422.0045376832009,93.54838709677418
423.0045484360047,64.51612903225806
424.00455918880846,38.70967741935483
425.00456994161226,9.677419354838708
426.00458069441606,-16.129032258064516
427.00459144721987,-35.483870967741936
428.00460220002367,-48.387096774193544
429.0046129528275,-51.61290322580645
430.0046237056312,-25.806451612903224
431.004634458435,3.225806451612903
432.0046452112388,41.935483870967744
433.0046559640426,74.19354838709677
434.00466671684643,77.41935483870967
435.00467746965023,70.96774193548387
436.004688222454,83.87096774193549
437.0046989752578,87.09677419354838
438.0047097280616,51.61290322580645
439.0047204808654,12.903225806451612
440.0047312336692,-3.225806451612903
441.004741986473,-12.903225806451612
442.00475273927674,-35.483870967741936
443.00476349208054,-48.387096774193544
444.00477424488435,-54.83870967741935
445.00478499768815,-45.16129032258064
446.00479575049195,-35.483870967741936
447.00480650329575,-25.806451612903224
448.0048172560995,-12.903225806451612
449.0048280089033,-9.677419354838708
450.0048387617071,-19.354838709677416
451.0048495145109,-35.483870967741936
452.0048602673147,-51.61290322580645
453.0048710201185,-45.16129032258064
454.0048817729223,-32.25806451612903
455.00489252572606,-35.483870967741936
456.00490327852987,-48.387096774193544
457.00491403133367,-77.41935483870967
458.0049247841375,-106.4516129032258
459.0049355369413,-112.9032258064516
460.0049462897451,-116.12903225806453
461.0049570425488,-125.80645161290322
462.0049677953526,-129.03225806451613
463.00497854815643,-125.80645161290322
464.00498930096023,-119.35483870967742
465.00500005376404,-93.54838709677418
466.00501080656784,-38.70967741935483
467.0050215593716,-6.451612903225806
468.0050323121754,-3.225806451612903
469.0050430649792,-3.225806451612903
470.005053817783,-22.58064516129032
471.0050645705868,-67.74193548387096
472.0050753233906,-119.35483870967742
473.00508607619435,-154.83870967741933
474.00509682899815,-177.41935483870967
475.00510758180195,-206.4516129032258
476.00511833460575,-229.0322580645161
477.00512908740956,-229.0322580645161
478.00513984021336,-206.4516129032258
479.0051505930171,-177.41935483870967
480.0051613458209,-141.93548387096774
481.0051720986247,-103.2258064516129
482.0051828514285,-77.41935483870967
483.0051936042323,-61.29032258064516
484.0052043570361,-51.61290322580645
485.00521510983987,-45.16129032258064
486.00522586264367,-41.935483870967744
487.0052366154475,-48.387096774193544
488.0052473682513,-35.483870967741936
489.0052581210551,-35.483870967741936
490.0052688738589,-61.29032258064516
491.0052796266626,-90.32258064516128
492.00529037946643,-112.9032258064516
493.00530113227023,-135.48387096774192
494.00531188507404,-167.74193548387098
495.00532263787784,-180.64516129032256
496.00533339068164,-177.41935483870967
497.0053441434854,-151.61290322580646
498.0053548962892,-132.258064516129
499.005365649093,-103.2258064516129
500.0053764018968,-93.54838709677418
501.0053871547006,-80.64516129032258
502.0053979075044,-67.74193548387096
503.00540866030815,-61.29032258064516
504.00541941311195,-51.61290322580645
505.00543016591575,-54.83870967741935
506.00544091871956,-90.32258064516128
507.00545167152336,-109.6774193548387
508.00546242432716,-109.6774193548387
509.0054731771309,-122.58064516129032
510.0054839299347,-109.6774193548387
511.0054946827385,-99.99999999999999
512.0055054355423,-103.2258064516129
513.0055161883461,-87.09677419354838
514.0055269411499,-51.61290322580645
515.0055376939537,-9.677419354838708
516.0055484467575,25.806451612903224
517.0055591995613,38.70967741935483
518.0055699523651,35.483870967741936
519.0055807051689,25.806451612903224
520.0055914579726,16.129032258064516
521.0056022107765,-12.903225806451612
522.0056129635802,-61.29032258064516
523.0056237163841,-83.87096774193549
524.0056344691878,-87.09677419354838
525.0056452219916,-80.64516129032258
526.0056559747954,-96.77419354838709
527.0056667275992,-129.03225806451613
528.005677480403,-138.70967741935482
529.0056882332068,-119.35483870967742
530.0056989860107,-96.77419354838709
531.0057097388144,-87.09677419354838
532.0057204916181,-77.41935483870967
533.005731244422,-58.06451612903226
534.0057419972258,-45.16129032258064
535.0057527500296,-32.25806451612903
536.0057635028334,-29.03225806451613
537.0057742556371,-22.58064516129032
538.005785008441,-22.58064516129032
539.0057957612447,-38.70967741935483
540.0058065140486,-54.83870967741935
541.0058172668523,-74.19354838709677
542.0058280196562,-106.4516129032258
543.0058387724599,-125.80645161290322
544.0058495252637,-129.03225806451613
545.0058602780675,-116.12903225806453
546.0058710308713,-90.32258064516128
547.0058817836751,-58.06451612903226
548.0058925364789,-35.483870967741936
549.0059032892826,-35.483870967741936
550.0059140420865,-35.483870967741936
551.0059247948902,-25.806451612903224
552.0059355476941,-9.677419354838708
553.0059463004978,6.451612903225806
554.0059570533017,16.129032258064516
555.0059678061054,12.903225806451612
556.0059785589092,9.677419354838708
557.005989311713,-6.451612903225806
558.0060000645168,-22.58064516129032
559.0060108173207,-61.29032258064516
560.0060215701244,-99.99999999999999
561.0060323229281,-112.9032258064516
562.006043075732,-125.80645161290322
563.0060538285358,-135.48387096774192
564.0060645813396,-122.58064516129032
565.0060753341434,-103.2258064516129
566.0060860869472,-83.87096774193549
567.006096839751,-58.06451612903226
568.0061075925547,-19.354838709677416
569.0061183453586,-3.225806451612903
570.0061290981623,-6.451612903225806
571.0061398509662,-32.25806451612903
572.0061506037699,-61.29032258064516
573.0061613565737,-87.09677419354838
574.0061721093775,-112.9032258064516
575.0061828621813,-112.9032258064516
576.0061936149851,-112.9032258064516
577.0062043677889,-99.99999999999999
578.0062151205927,-67.74193548387096
579.0062258733965,-32.25806451612903
580.0062366262002,-25.806451612903224
581.0062473790041,-38.70967741935483
582.0062581318078,-45.16129032258064
583.0062688846117,-29.03225806451613
584.0062796374154,-6.451612903225806
585.0062903902193,25.806451612903224
586.006301143023,35.483870967741936
587.0063118958268,19.354838709677416
588.0063226486307,-6.451612903225806
589.0063334014344,-35.483870967741936
590.0063441542383,-54.83870967741935
591.006354907042,-74.19354838709677
592.0063656598458,-77.41935483870967
593.0063764126496,-70.96774193548387
594.0063871654534,-67.74193548387096
595.0063979182572,-58.06451612903226
596.006408671061,-45.16129032258064
597.0064194238648,-16.129032258064516
598.0064301766686,19.354838709677416
599.0064409294723,38.70967741935483
600.0064516822762,51.61290322580645
601.0064624350799,58.06451612903226
602.0064731878838,54.83870967741935
603.0064839406875,64.51612903225806
604.0064946934913,61.29032258064516
605.0065054462951,54.83870967741935
606.0065161990989,32.25806451612903
607.0065269519027,-3.225806451612903
608.0065377047065,-25.806451612903224
609.0065484575103,-41.935483870967744
610.0065592103141,-45.16129032258064
611.0065699631178,-38.70967741935483
612.0065807159217,-35.483870967741936
613.0065914687254,-19.354838709677416
614.0066022215293,3.225806451612903
615.006612974333,32.25806451612903
616.0066237271368,54.83870967741935
617.0066344799407,54.83870967741935
618.0066452327444,58.06451612903226
619.0066559855483,58.06451612903226
620.006666738352,38.70967741935483
621.0066774911559,16.129032258064516
622.0066882439596,16.129032258064516
623.0066989967634,22.58064516129032
624.0067097495672,3.225806451612903
625.006720502371,-35.483870967741936
626.0067312551748,-54.83870967741935
627.0067420079786,-38.70967741935483
628.0067527607823,-12.903225806451612
629.0067635135862,6.451612903225806
630.0067742663899,3.225806451612903
631.0067850191938,0.0
632.0067957719975,0.0
633.0068065248014,6.451612903225806
634.0068172776051,12.903225806451612
635.0068280304089,35.483870967741936
636.0068387832127,48.387096774193544
637.0068495360165,48.387096774193544
638.0068602888203,22.58064516129032
639.0068710416241,-19.354838709677416
640.006881794428,-64.51612903225806
641.0068925472317,-103.2258064516129
642.0069033000354,-116.12903225806453
643.0069140528393,-93.54838709677418
644.006924805643,-74.19354838709677
645.0069355584469,-64.51612903225806
646.0069463112507,-32.25806451612903
647.0069570640544,19.354838709677416
648.0069678168583,54.83870967741935
649.006978569662,67.74193548387096
650.0069893224659,45.16129032258064
651.0070000752696,48.387096774193544
652.0070108280735,80.64516129032258
653.0070215808772,90.32258064516128
654.007032333681,41.935483870967744
655.0070430864848,-16.129032258064516
656.0070538392886,-32.25806451612903
657.0070645920924,-29.03225806451613
658.0070753448962,-45.16129032258064
659.0070860976999,-29.03225806451613
660.0070968505038,12.903225806451612
661.0071076033075,32.25806451612903
662.0071183561114,32.25806451612903
663.0071291089151,25.806451612903224
664.007139861719,25.806451612903224
665.0071506145227,38.70967741935483
666.0071613673265,51.61290322580645
667.0071721201303,54.83870967741935
668.0071828729341,58.06451612903226
669.007193625738,70.96774193548387
670.0072043785417,77.41935483870967
671.0072151313454,70.96774193548387
672.0072258841493,51.61290322580645
673.007236636953,25.806451612903224
674.0072473897569,0.0
675.0072581425607,-9.677419354838708
676.0072688953645,-19.354838709677416
677.0072796481683,-35.483870967741936
678.007290400972,-32.25806451612903
679.0073011537759,-9.677419354838708
680.0073119065796,0.0
681.0073226593835,9.677419354838708
682.0073334121872,32.25806451612903
683.007344164991,38.70967741935483
684.0073549177948,19.354838709677416
685.0073656705986,-6.451612903225806
686.0073764234024,-3.225806451612903
687.0073871762062,9.677419354838708
688.00739792901,19.354838709677416
689.0074086818138,16.129032258064516
690.0074194346175,3.225806451612903
691.0074301874214,-35.483870967741936
692.0074409402251,-74.19354838709677
693.007451693029,-83.87096774193549
694.0074624458327,-80.64516129032258
695.0074731986365,-48.387096774193544
696.0074839514403,-25.806451612903224
697.0074947042441,-3.225806451612903
698.007505457048,35.483870967741936
699.0075162098517,38.70967741935483
700.0075269626556,32.25806451612903
701.0075377154593,38.70967741935483
702.007548468263,38.70967741935483
703.0075592210669,29.03225806451613
704.0075699738707,22.58064516129032
705.0075807266745,16.129032258064516
706.0075914794783,6.451612903225806
707.0076022322821,16.129032258064516
708.0076129850859,19.354838709677416
709.0076237378896,32.25806451612903
710.0076344906935,29.03225806451613
711.0076452434972,3.225806451612903
712.0076559963011,-3.225806451612903
713.0076667491048,9.677419354838708
714.0076775019086,16.129032258064516
715.0076882547124,12.903225806451612
716.0076990075162,6.451612903225806
717.00770976032,12.903225806451612
718.0077205131238,41.935483870967744
719.0077312659276,58.06451612903226
720.0077420187314,45.16129032258064
721.0077527715351,25.806451612903224
722.007763524339,19.354838709677416
723.0077742771427,-9.677419354838708
724.0077850299466,-41.935483870967744
725.0077957827503,-67.74193548387096
726.0078065355541,-80.64516129032258
727.007817288358,-83.87096774193549
728.0078280411617,-48.387096774193544
729.0078387939656,-16.129032258064516
730.0078495467693,-6.451612903225806
731.0078602995732,-9.677419354838708
732.0078710523769,-22.58064516129032
733.0078818051807,-19.354838709677416
734.0078925579845,-16.129032258064516
735.0079033107883,-16.129032258064516
736.0079140635921,-3.225806451612903
737.0079248163959,12.903225806451612
738.0079355691996,16.129032258064516
739.0079463220035,19.354838709677416
740.0079570748072,12.903225806451612
741.0079678276111,-3.225806451612903
742.0079785804148,-12.903225806451612
743.0079893332187,9.677419354838708
744.0080000860224,19.354838709677416
745.0080108388262,16.129032258064516
746.00802159163,6.451612903225806
747.0080323444338,6.451612903225806
748.0080430972376,29.03225806451613
749.0080538500414,58.06451612903226
750.0080646028451,90.32258064516128
751.008075355649,103.2258064516129
752.0080861084527,90.32258064516128
753.0080968612566,58.06451612903226
754.0081076140603,25.806451612903224
755.0081183668642,6.451612903225806
756.008129119668,3.225806451612903
757.0081398724717,-12.903225806451612
758.0081506252756,-29.03225806451613
759.0081613780793,-32.25806451612903
760.0081721308832,-32.25806451612903
761.0081828836869,-38.70967741935483
762.0081936364907,-35.483870967741936
763.0082043892945,-16.129032258064516
764.0082151420983,-9.677419354838708
765.0082258949021,-9.677419354838708
766.0082366477059,-9.677419354838708
767.0082474005097,-12.903225806451612
768.0082581533135,-3.225806451612903
769.0082689061172,6.451612903225806
770.0082796589211,25.806451612903224
771.0082904117248,41.935483870967744
772.0083011645287,32.25806451612903
773.0083119173324,0.0
774.0083226701363,-41.935483870967744
775.00833342294,-58.06451612903226
776.0083441757438,-51.61290322580645
777.0083549285476,-38.70967741935483
778.0083656813514,-22.58064516129032
779.0083764341553,-22.58064516129032
780.008387186959,-3.225806451612903
781.0083979397627,16.129032258064516
782.0084086925666,41.935483870967744
783.0084194453704,61.29032258064516
784.0084301981742,58.06451612903226
785.008440950978,54.83870967741935
786.0084517037818,45.16129032258064
787.0084624565856,45.16129032258064
788.0084732093893,38.70967741935483
789.0084839621932,29.03225806451613
790.0084947149969,3.225806451612903
791.0085054678008,-41.935483870967744
792.0085162206045,-77.41935483870967
793.0085269734083,-90.32258064516128
794.0085377262121,-90.32258064516128
795.0085484790159,-83.87096774193549
796.0085592318197,-74.19354838709677
797.0085699846235,-48.387096774193544
798.0085807374273,-29.03225806451613
799.0085914902311,-32.25806451612903
800.0086022430348,-25.806451612903224
801.0086129958387,-3.225806451612903
802.0086237486424,38.70967741935483
803.0086345014463,64.51612903225806
804.00864525425,41.935483870967744
805.0086560070538,-3.225806451612903
806.0086667598576,-45.16129032258064
807.0086775126614,-54.83870967741935
808.0086882654653,-67.74193548387096
809.008699018269,-80.64516129032258
810.0087097710729,-64.51612903225806
811.0087205238766,-41.935483870967744
812.0087312766804,-41.935483870967744
813.0087420294842,-32.25806451612903
814.008752782288,-22.58064516129032
815.0087635350918,-22.58064516129032
816.0087742878956,-6.451612903225806
817.0087850406993,25.806451612903224
818.0087957935032,45.16129032258064
819.0088065463069,64.51612903225806
820.0088172991108,96.77419354838709
821.0088280519145,90.32258064516128
822.0088388047184,61.29032258064516
823.0088495575221,25.806451612903224
824.0088603103259,-12.903225806451612
825.0088710631297,-38.70967741935483
826.0088818159335,-41.935483870967744
827.0088925687373,-25.806451612903224
828.0089033215411,-12.903225806451612
829.0089140743448,-25.806451612903224
830.0089248271487,-48.387096774193544
831.0089355799524,-25.806451612903224
832.0089463327563,19.354838709677416
833.00895708556,61.29032258064516
834.0089678383639,64.51612903225806
835.0089785911676,54.83870967741935
836.0089893439714,38.70967741935483
837.0090000967753,-3.225806451612903
838.009010849579,-19.354838709677416
839.0090216023829,-16.129032258064516
840.0090323551866,-6.451612903225806
841.0090431079905,-12.903225806451612
842.0090538607942,-16.129032258064516
843.009064613598,-12.903225806451612
844.0090753664018,-9.677419354838708
845.0090861192056,-3.225806451612903
846.0090968720094,3.225806451612903
847.0091076248132,16.129032258064516
848.0091183776169,29.03225806451613
849.0091291304208,51.61290322580645
850.0091398832245,64.51612903225806
851.0091506360284,64.51612903225806
852.0091613888321,64.51612903225806
853.009172141636,61.29032258064516
854.0091828944397,58.06451612903226
855.0091936472435,58.06451612903226
856.0092044000473,48.387096774193544
857.0092151528511,22.58064516129032
858.009225905655,0.0
859.0092366584587,-19.354838709677416
860.0092474112624,-25.806451612903224
861.0092581640663,-35.483870967741936
862.00926891687,-25.806451612903224
863.0092796696739,9.677419354838708
864.0092904224776,35.483870967741936
865.0093011752815,51.61290322580645
866.0093119280853,54.83870967741935
867.009322680889,45.16129032258064
868.0093334336929,48.387096774193544
869.0093441864966,51.61290322580645
870.0093549393005,45.16129032258064
871.0093656921042,29.03225806451613
872.009376444908,12.903225806451612
873.0093871977118,0.0
874.0093979505156,-25.806451612903224
875.0094087033194,-48.387096774193544
876.0094194561232,-67.74193548387096
877.009430208927,-70.96774193548387
878.0094409617308,-61.29032258064516
879.0094517145345,-25.806451612903224
880.0094624673384,9.677419354838708
881.0094732201421,22.58064516129032
882.009483972946,12.903225806451612
883.0094947257497,0.0
884.0095054785535,19.354838709677416
885.0095162313573,41.935483870967744
886.0095269841611,38.70967741935483
887.009537736965,29.03225806451613
888.0095484897687,22.58064516129032
889.0095592425725,35.483870967741936
890.0095699953763,16.129032258064516
891.00958074818,-25.806451612903224
892.0095915009839,-29.03225806451613
893.0096022537876,-19.354838709677416
894.0096130065915,-25.806451612903224
895.0096237593953,-25.806451612903224
896.009634512199,-12.903225806451612
897.0096452650029,16.129032258064516
898.0096560178066,22.58064516129032
899.0096667706105,38.70967741935483
900.0096775234142,54.83870967741935
901.0096882762181,64.51612903225806
902.0096990290218,54.83870967741935
903.0097097818256,9.677419354838708
904.0097205346294,-12.903225806451612
905.0097312874332,-25.806451612903224
906.009742040237,-16.129032258064516
907.0097527930408,-32.25806451612903
908.0097635458446,-45.16129032258064
909.0097742986484,-45.16129032258064
910.0097850514521,-25.806451612903224
911.009795804256,-29.03225806451613
912.0098065570597,-9.677419354838708
913.0098173098636,25.806451612903224
914.0098280626673,45.16129032258064
915.0098388154711,38.70967741935483
916.009849568275,45.16129032258064
917.0098603210787,70.96774193548387
918.0098710738826,80.64516129032258
919.0098818266863,77.41935483870967
920.0098925794902,67.74193548387096
921.0099033322939,54.83870967741935
922.0099140850976,67.74193548387096
923.0099248379015,90.32258064516128
924.0099355907053,80.64516129032258
925.0099463435091,54.83870967741935
926.0099570963129,35.483870967741936
927.0099678491166,9.677419354838708
928.0099786019205,-12.903225806451612
929.0099893547242,-25.806451612903224
930.0100001075281,-19.354838709677416
931.0100108603318,-6.451612903225806
932.0100216131357,19.354838709677416
933.0100323659394,45.16129032258064
934.0100431187432,41.935483870967744
935.010053871547,29.03225806451613
936.0100646243508,22.58064516129032
937.0100753771546,19.354838709677416
938.0100861299584,19.354838709677416
939.0100968827621,6.451612903225806
940.010107635566,3.225806451612903
941.0101183883697,-9.677419354838708
942.0101291411736,-38.70967741935483
943.0101398939773,-58.06451612903226
944.0101506467812,-67.74193548387096
945.010161399585,-48.387096774193544
946.0101721523887,-6.451612903225806
947.0101829051926,35.483870967741936
948.0101936579963,58.06451612903226
949.0102044108002,77.41935483870967
950.0102151636039,90.32258064516128
951.0102259164076,90.32258064516128
952.0102366692115,74.19354838709677
953.0102474220153,61.29032258064516
954.0102581748191,41.935483870967744
955.0102689276229,9.677419354838708
956.0102796804267,-16.129032258064516
957.0102904332305,-41.935483870967744
958.0103011860342,-67.74193548387096
959.0103119388381,-77.41935483870967
960.0103226916418,-74.19354838709677
961.0103334444457,-61.29032258064516
962.0103441972494,-41.935483870967744
963.0103549500533,-25.806451612903224
964.010365702857,-16.129032258064516
965.0103764556608,-16.129032258064516
966.0103872084646,-9.677419354838708
967.0103979612684,32.25806451612903
968.0104087140722,74.19354838709677
969.010419466876,77.41935483870967
970.0104302196797,38.70967741935483
971.0104409724836,3.225806451612903
972.0104517252873,-12.903225806451612
973.0104624780912,-12.903225806451612
974.010473230895,-12.903225806451612
975.0104839836988,-19.354838709677416
976.0104947365026,-22.58064516129032
977.0105054893063,-22.58064516129032
978.0105162421102,-6.451612903225806
979.0105269949139,25.806451612903224
980.0105377477178,32.25806451612903
981.0105485005215,58.06451612903226
982.0105592533253,90.32258064516128
983.0105700061291,129.03225806451613
984.0105807589329,116.12903225806453
985.0105915117367,67.74193548387096
986.0106022645405,70.96774193548387
987.0106130173443,77.41935483870967
988.0106237701481,67.74193548387096
989.0106345229518,35.483870967741936
990.0106452757557,0.0
991.0106560285594,-16.129032258064516
992.0106667813633,-6.451612903225806
993.010677534167,9.677419354838708
994.0106882869708,3.225806451612903
995.0106990397746,12.903225806451612
996.0107097925784,51.61290322580645
997.0107205453822,74.19354838709677
998.010731298186,99.99999999999999
999.0107420509898,106.4516129032258
1000.0107528037936,106.4516129032258
1001.0107635565973,99.99999999999999
1002.0107743094012,96.77419354838709
1003.010785062205,90.32258064516128
1004.0107958150088,90.32258064516128
1005.0108065678126,90.32258064516128
1006.0108173206163,77.41935483870967
1007.0108280734202,51.61290322580645
1008.0108388262239,29.03225806451613
1009.0108495790278,-6.451612903225806
1010.0108603318315,-45.16129032258064
1011.0108710846354,-51.61290322580645
1012.0108818374391,-35.483870967741936
1013.0108925902429,-12.903225806451612
1014.0109033430467,3.225806451612903
1015.0109140958505,45.16129032258064
1016.0109248486543,83.87096774193549
1017.0109356014581,99.99999999999999
1018.0109463542618,96.77419354838709
1019.0109571070657,87.09677419354838
1020.0109678598694,87.09677419354838
1021.0109786126733,77.41935483870967
1022.010989365477,41.935483870967744
1023.0110001182809,16.129032258064516
1024.0110108710846,-22.58064516129032
1025.0110216238884,-58.06451612903226
1026.0110323766921,-64.51612903225806
1027.011043129496,-67.74193548387096
1028.0110538822998,-51.61290322580645
1029.0110646351036,-22.58064516129032
1030.0110753879073,-6.451612903225806
1031.011086140711,-9.677419354838708
1032.011096893515,-19.354838709677416
1033.0111076463188,3.225806451612903
1034.0111183991226,12.903225806451612
1035.0111291519263,6.451612903225806
1036.0111399047303,3.225806451612903
1037.011150657534,-16.129032258064516
1038.0111614103378,-29.03225806451613
1039.0111721631415,-32.25806451612903
1040.0111829159453,-19.354838709677416
1041.0111936687492,3.225806451612903
1042.011204421553,3.225806451612903
1043.0112151743567,-9.677419354838708
1044.0112259271605,-35.483870967741936
1045.0112366799642,-48.387096774193544
1046.0112474327682,-64.51612903225806
1047.011258185572,-77.41935483870967
1048.0112689383757,-80.64516129032258
1049.0112796911794,-67.74193548387096
1050.0112904439832,-48.387096774193544
1051.0113011967871,-35.483870967741936
1052.011311949591,-29.03225806451613
1053.0113227023946,-12.903225806451612
1054.0113334551984,0.0
1055.0113442080021,9.677419354838708
1056.011354960806,-3.225806451612903
1057.0113657136098,-35.483870967741936
1058.0113764664136,-51.61290322580645
1059.0113872192173,-58.06451612903226
1060.0113979720213,-80.64516129032258
1061.011408724825,-74.19354838709677
1062.0114194776288,-48.387096774193544
1063.0114302304326,-22.58064516129032
1064.0114409832363,-19.354838709677416
1065.0114517360403,3.225806451612903
1066.011462488844,41.935483870967744
1067.0114732416478,74.19354838709677
1068.0114839944515,99.99999999999999
1069.0114947472553,99.99999999999999
1070.0115055000592,74.19354838709677
1071.011516252863,29.03225806451613
1072.0115270056667,-19.354838709677416
1073.0115377584705,-58.06451612903226
1074.0115485112742,-90.32258064516128
1075.0115592640782,-87.09677419354838
1076.011570016882,-77.41935483870967
1077.0115807696857,-64.51612903225806
1078.0115915224894,-41.935483870967744
1079.0116022752932,-32.25806451612903
1080.0116130280971,-25.806451612903224
1081.011623780901,-16.129032258064516
1082.0116345337046,-16.129032258064516
1083.0116452865084,0.0
1084.0116560393124,38.70967741935483
1085.011666792116,67.74193548387096
1086.0116775449198,74.19354838709677
1087.0116882977236,90.32258064516128
1088.0116990505273,122.58064516129032
1089.0117098033313,148.38709677419354
1090.011720556135,151.61290322580646
1091.0117313089388,151.61290322580646
1092.0117420617426,174.19354838709677
1093.0117528145463,206.4516129032258
1094.0117635673503,251.61290322580643
1095.011774320154,303.2258064516129
1096.0117850729578,364.51612903225805
1097.0117958257615,406.4516129032258
1098.0118065785653,467.741935483871
1099.0118173313692,567.741935483871
1100.011828084173,638.7096774193548
1101.0118388369767,661.2903225806451
1102.0118495897805,690.3225806451612
1103.0118603425844,735.483870967742
1104.0118710953882,764.5161290322579
1105.011881848192,767.741935483871
1106.0118926009957,745.1612903225806
1107.0119033537994,722.5806451612902
1108.0119141066034,696.7741935483871
1109.0119248594071,661.2903225806451
1110.011935612211,606.4516129032259
1111.0119463650146,561.290322580645
1112.0119571178184,519.3548387096773
1113.0119678706224,477.4193548387097
1114.011978623426,454.8387096774193
1115.0119893762298,438.7096774193548
1116.0120001290336,383.8709677419355
1117.0120108818373,303.2258064516129
1118.0120216346413,222.5806451612903
1119.012032387445,145.16129032258067
1120.0120431402488,58.06451612903226
1121.0120538930526,-35.483870967741936
1122.0120646458563,-116.12903225806453
1123.0120753986603,-190.32258064516128
1124.012086151464,-264.516129032258
1125.0120969042678,-312.9032258064516
1126.0121076570715,-332.25806451612897
1127.0121184098755,-351.61290322580646
1128.0121291626792,-358.06451612903226
1129.012139915483,-348.38709677419354
1130.0121506682867,-348.38709677419354
1131.0121614210905,-351.61290322580646
1132.0121721738944,-329.0322580645161
1133.0121829266982,-300.0
1134.012193679502,-290.32258064516134
1135.0122044323057,-287.0967741935484
1136.0122151851094,-283.8709677419355
1137.0122259379134,-274.19354838709677
1138.0122366907171,-248.38709677419354
1139.012247443521,-238.70967741935485
1140.0122581963246,-241.93548387096774
1141.0122689491284,-232.25806451612905
1142.0122797019324,-232.25806451612905
1143.012290454736,-212.9032258064516
1144.0123012075398,-196.7741935483871
1145.0123119603436,-193.54838709677418
1146.0123227131473,-164.51612903225805
1147.0123334659513,-122.58064516129032
1148.012344218755,-96.77419354838709
1149.0123549715588,-87.09677419354838
1150.0123657243626,-80.64516129032258
1151.0123764771665,-90.32258064516128
1152.0123872299703,-103.2258064516129
1153.012397982774,-106.4516129032258
1154.0124087355778,-119.35483870967742
1155.0124194883815,-135.48387096774192
1156.0124302411855,-141.93548387096774
1157.0124409939892,-161.29032258064515
1158.012451746793,-170.96774193548387
1159.0124624995967,-170.96774193548387
1160.0124732524005,-154.83870967741933
1161.0124840052044,-148.38709677419354
1162.0124947580082,-154.83870967741933
1163.012505510812,-148.38709677419354
1164.0125162636157,-138.70967741935482
1165.0125270164194,-125.80645161290322
1166.0125377692234,-119.35483870967742
1167.0125485220271,-116.12903225806453
1168.012559274831,-90.32258064516128
1169.0125700276346,-77.41935483870967
1170.0125807804386,-96.77419354838709
1171.0125915332424,-112.9032258064516
1172.012602286046,-125.80645161290322
1173.0126130388498,-132.258064516129
1174.0126237916536,-129.03225806451613
1175.0126345444576,-129.03225806451613
1176.0126452972613,-116.12903225806453
1177.012656050065,-90.32258064516128
1178.0126668028688,-64.51612903225806
1179.0126775556726,-45.16129032258064
1180.0126883084765,-32.25806451612903
1181.0126990612803,-25.806451612903224
1182.012709814084,-19.354838709677416
1183.0127205668878,-32.25806451612903
1184.0127313196915,-58.06451612903226
1185.0127420724955,-87.09677419354838
1186.0127528252992,-96.77419354838709
1187.012763578103,-96.77419354838709
1188.0127743309067,-99.99999999999999
1189.0127850837105,-106.4516129032258
1190.0127958365144,-83.87096774193549
1191.0128065893182,-80.64516129032258
1192.012817342122,-112.9032258064516
1193.0128280949257,-141.93548387096774
1194.0128388477297,-141.93548387096774
1195.0128496005334,-119.35483870967742
1196.0128603533371,-93.54838709677418
1197.012871106141,-61.29032258064516
1198.0128818589446,-32.25806451612903
1199.0128926117486,-25.806451612903224
1200.0129033645524,-25.806451612903224
1201.012914117356,-22.58064516129032
1202.0129248701598,12.903225806451612
1203.0129356229636,29.03225806451613
1204.0129463757676,12.903225806451612
1205.0129571285713,-12.903225806451612
1206.012967881375,-45.16129032258064
1207.0129786341788,-64.51612903225806
1208.0129893869826,-74.19354838709677
1209.0130001397865,-96.77419354838709
1210.0130108925903,-96.77419354838709
1211.013021645394,-70.96774193548387
1212.0130323981978,-48.387096774193544
1213.0130431510015,-41.935483870967744
1214.0130539038055,-48.387096774193544
1215.0130646566092,-58.06451612903226
1216.013075409413,-64.51612903225806
1217.0130861622167,-32.25806451612903
1218.0130969150207,0.0
1219.0131076678244,3.225806451612903
1220.0131184206282,-6.451612903225806
1221.013129173432,-12.903225806451612
1222.0131399262357,-19.354838709677416
1223.0131506790397,-38.70967741935483
1224.0131614318434,-61.29032258064516
1225.0131721846471,-83.87096774193549
1226.013182937451,-87.09677419354838
1227.0131936902546,-90.32258064516128
1228.0132044430586,-93.54838709677418
1229.0132151958624,-83.87096774193549
1230.013225948666,-45.16129032258064
1231.0132367014699,-6.451612903225806
1232.0132474542736,19.354838709677416
1233.0132582070776,35.483870967741936
1234.0132689598813,38.70967741935483
1235.013279712685,38.70967741935483
1236.0132904654888,29.03225806451613
1237.0133012182928,35.483870967741936
1238.0133119710965,38.70967741935483
1239.0133227239003,29.03225806451613
1240.013333476704,-9.677419354838708
1241.0133442295078,-45.16129032258064
1242.0133549823117,-48.387096774193544
1243.0133657351155,-41.935483870967744
1244.0133764879192,-32.25806451612903
1245.013387240723,-16.129032258064516
1246.0133979935267,-3.225806451612903
1247.0134087463307,-6.451612903225806
1248.0134194991344,-16.129032258064516
1249.0134302519382,-29.03225806451613
1250.013441004742,-9.677419354838708
1251.0134517575457,12.903225806451612
1252.0134625103497,9.677419354838708
1253.0134732631534,-16.129032258064516
1254.0134840159571,-45.16129032258064
1255.013494768761,-54.83870967741935
1256.0135055215646,-45.16129032258064
1257.0135162743686,-45.16129032258064
1258.0135270271724,-22.58064516129032
1259.013537779976,3.225806451612903
1260.0135485327799,-6.451612903225806
1261.0135592855838,-41.935483870967744
1262.0135700383876,-64.51612903225806
1263.0135807911913,-54.83870967741935
1264.013591543995,-32.25806451612903
1265.0136022967988,3.225806451612903
1266.0136130496028,38.70967741935483
1267.0136238024065,70.96774193548387
1268.0136345552103,93.54838709677418
1269.013645308014,90.32258064516128
1270.0136560608178,74.19354838709677
1271.0136668136217,51.61290322580645
1272.0136775664255,38.70967741935483
1273.0136883192292,12.903225806451612
1274.013699072033,-19.354838709677416
1275.0137098248367,-35.483870967741936
1276.0137205776407,-32.25806451612903
1277.0137313304444,3.225806451612903
1278.0137420832482,45.16129032258064
1279.013752836052,77.41935483870967
1280.013763588856,93.54838709677418
1281.0137743416597,96.77419354838709
1282.0137850944634,87.09677419354838
1283.0137958472671,109.6774193548387
1284.013806600071,122.58064516129032
1285.0138173528749,99.99999999999999
1286.0138281056786,96.77419354838709
1287.0138388584824,87.09677419354838
1288.013849611286,51.61290322580645
1289.0138603640899,9.677419354838708
1290.0138711168938,3.225806451612903
1291.0138818696976,25.806451612903224
1292.0138926225013,45.16129032258064
1293.013903375305,58.06451612903226
1294.0139141281088,48.387096774193544
1295.0139248809128,54.83870967741935
1296.0139356337165,74.19354838709677
1297.0139463865203,74.19354838709677
1298.013957139324,87.09677419354838
1299.0139678921278,99.99999999999999
1300.0139786449317,119.35483870967742
1301.0139893977355,138.70967741935482
1302.0140001505392,148.38709677419354
1303.014010903343,151.61290322580646
1304.014021656147,132.258064516129
1305.0140324089507,93.54838709677418
1306.0140431617544,70.96774193548387
1307.0140539145582,54.83870967741935
1308.014064667362,54.83870967741935
1309.014075420166,51.61290322580645
1310.0140861729697,51.61290322580645
1311.0140969257734,74.19354838709677
1312.0141076785771,103.2258064516129
1313.014118431381,116.12903225806453
1314.0141291841849,122.58064516129032
1315.0141399369886,122.58064516129032
1316.0141506897924,93.54838709677418
1317.014161442596,77.41935483870967
1318.0141721953999,77.41935483870967
1319.0141829482038,90.32258064516128
1320.0141937010076,90.32258064516128
1321.0142044538113,83.87096774193549
1322.014215206615,77.41935483870967
1323.0142259594188,74.19354838709677
1324.0142367122228,61.29032258064516
1325.0142474650265,38.70967741935483
1326.0142582178303,35.483870967741936
1327.014268970634,41.935483870967744
1328.014279723438,54.83870967741935
1329.0142904762417,64.51612903225806
1330.0143012290455,83.87096774193549
1331.0143119818492,106.4516129032258
1332.014322734653,129.03225806451613
1333.014333487457,141.93548387096774
1334.0143442402607,145.16129032258067
1335.0143549930644,138.70967741935482
1336.0143657458682,122.58064516129032
1337.014376498672,119.35483870967742
1338.014387251476,109.6774193548387
1339.0143980042797,77.41935483870967
1340.0144087570834,54.83870967741935
1341.0144195098871,35.483870967741936
1342.014430262691,25.806451612903224
1343.0144410154949,32.25806451612903
1344.0144517682986,29.03225806451613
1345.0144625211024,38.70967741935483
1346.014473273906,51.61290322580645
1347.01448402671,64.51612903225806
1348.0144947795138,74.19354838709677
1349.0145055323176,74.19354838709677
1350.0145162851213,77.41935483870967
1351.014527037925,80.64516129032258
1352.014537790729,70.96774193548387
1353.0145485435328,67.74193548387096
1354.0145592963365,48.387096774193544
1355.0145700491403,41.935483870967744
1356.014580801944,41.935483870967744
1357.014591554748,54.83870967741935
1358.0146023075517,48.387096774193544
1359.0146130603555,38.70967741935483
1360.0146238131592,41.935483870967744
1361.014634565963,38.70967741935483
1362.014645318767,58.06451612903226
1363.0146560715707,80.64516129032258
1364.0146668243744,83.87096774193549
1365.0146775771782,64.51612903225806
1366.014688329982,58.06451612903226
1367.014699082786,61.29032258064516
1368.0147098355897,70.96774193548387
1369.0147205883934,87.09677419354838
1370.0147313411971,87.09677419354838
1371.0147420940011,61.29032258064516
1372.0147528468049,25.806451612903224
1373.0147635996086,9.677419354838708
1374.0147743524124,-6.451612903225806
1375.014785105216,-12.903225806451612
1376.01479585802,-16.129032258064516
1377.0148066108238,-19.354838709677416
1378.0148173636276,-12.903225806451612
1379.0148281164313,-25.806451612903224
1380.014838869235,-41.935483870967744
1381.014849622039,-48.387096774193544
1382.0148603748428,-41.935483870967744
1383.0148711276465,-38.70967741935483
1384.0148818804503,-35.483870967741936
1385.014892633254,-35.483870967741936
1386.014903386058,-58.06451612903226
1387.0149141388617,-51.61290322580645
1388.0149248916655,-48.387096774193544
1389.0149356444692,-80.64516129032258
1390.014946397273,-93.54838709677418
1391.014957150077,-93.54838709677418
1392.0149679028807,-106.4516129032258
1393.0149786556844,-112.9032258064516
1394.0149894084882,-122.58064516129032
1395.0150001612922,-112.9032258064516
1396.015010914096,-93.54838709677418
1397.0150216668997,-80.64516129032258
1398.0150324197034,-83.87096774193549
1399.0150431725071,-83.87096774193549
1400.0150539253111,-67.74193548387096
1401.0150646781149,-48.387096774193544
1402.0150754309186,-41.935483870967744
1403.0150861837224,-54.83870967741935
1404.015096936526,-83.87096774193549
1405.01510768933,-103.2258064516129
1406.0151184421338,-99.99999999999999
1407.0151291949376,-116.12903225806453
1408.0151399477413,-132.258064516129
1409.015150700545,-132.258064516129
1410.015161453349,-132.258064516129
1411.0151722061528,-132.258064516129
1412.0151829589565,-119.35483870967742
1413.0151937117603,-116.12903225806453
1414.0152044645642,-129.03225806451613
1415.015215217368,-132.258064516129
1416.0152259701717,-129.03225806451613
1417.0152367229755,-106.4516129032258
1418.0152474757792,-87.09677419354838
1419.0152582285832,-67.74193548387096
1420.015268981387,-64.51612903225806
1421.0152797341907,-77.41935483870967
1422.0152904869944,-77.41935483870967
1423.0153012397982,-90.32258064516128
1424.0153119926022,-116.12903225806453
1425.015322745406,-129.03225806451613
1426.0153334982097,-135.48387096774192
1427.0153442510134,-138.70967741935482
1428.0153550038171,-132.258064516129
1429.0153657566211,-129.03225806451613
1430.0153765094249,-112.9032258064516
1431.0153872622286,-99.99999999999999
1432.0153980150324,-106.4516129032258
1433.015408767836,-109.6774193548387
1434.01541952064,-129.03225806451613
1435.0154302734438,-135.48387096774192
1436.0154410262476,-135.48387096774192
1437.0154517790513,-132.258064516129
1438.0154625318553,-116.12903225806453
1439.015473284659,-116.12903225806453
1440.0154840374628,-129.03225806451613
1441.0154947902665,-122.58064516129032
1442.0155055430703,-119.35483870967742
1443.0155162958742,-112.9032258064516
1444.015527048678,-93.54838709677418
1445.0155378014817,-77.41935483870967
1446.0155485542855,-58.06451612903226
1447.0155593070892,-51.61290322580645
1448.0155700598932,-45.16129032258064
1449.015580812697,-45.16129032258064
1450.0155915655007,-48.387096774193544
1451.0156023183044,-41.935483870967744
1452.0156130711082,-12.903225806451612
1453.0156238239122,22.58064516129032
1454.015634576716,9.677419354838708
1455.0156453295197,-32.25806451612903
1456.0156560823234,-58.06451612903226
1457.0156668351271,-64.51612903225806
1458.0156775879311,-80.64516129032258
1459.0156883407349,-90.32258064516128
1460.0156990935386,-87.09677419354838
1461.0157098463424,-90.32258064516128
1462.0157205991463,-87.09677419354838
1463.01573135195,-109.6774193548387
1464.0157421047538,-125.80645161290322
1465.0157528575576,-119.35483870967742
1466.0157636103613,-103.2258064516129
1467.0157743631653,-80.64516129032258
1468.015785115969,-58.06451612903226
1469.0157958687728,-25.806451612903224
1470.0158066215765,9.677419354838708
1471.0158173743803,6.451612903225806
1472.0158281271842,-25.806451612903224
1473.015838879988,-41.935483870967744
1474.0158496327917,-48.387096774193544
1475.0158603855955,-38.70967741935483
1476.0158711383992,-58.06451612903226
1477.0158818912032,-77.41935483870967
1478.015892644007,-87.09677419354838
1479.0159033968107,-99.99999999999999
1480.0159141496144,-99.99999999999999
1481.0159249024184,-83.87096774193549
1482.0159356552222,-64.51612903225806
1483.015946408026,-54.83870967741935
1484.0159571608297,-38.70967741935483
1485.0159679136334,-32.25806451612903
1486.0159786664374,-35.483870967741936
1487.0159894192411,-38.70967741935483
1488.0160001720449,-25.806451612903224
1489.0160109248486,-45.16129032258064
1490.0160216776524,-90.32258064516128
1491.0160324304563,-116.12903225806453
1492.01604318326,-112.9032258064516
1493.0160539360638,-90.32258064516128
1494.0160646888676,-87.09677419354838
1495.0160754416713,-99.99999999999999
1496.0160861944753,-83.87096774193549
1497.016096947279,-54.83870967741935
1498.0161077000828,-35.483870967741936
1499.0161184528865,-25.806451612903224
1500.0161292056903,-19.354838709677416
1501.0161399584943,-25.806451612903224
1502.016150711298,-19.354838709677416
1503.0161614641017,-9.677419354838708
1504.0161722169055,0.0
1505.0161829697095,-6.451612903225806
1506.0161937225132,-16.129032258064516
1507.016204475317,-22.58064516129032
1508.0162152281207,-19.354838709677416
1509.0162259809244,-32.25806451612903
1510.0162367337284,-58.06451612903226
1511.0162474865322,-77.41935483870967
1512.016258239336,-80.64516129032258
1513.0162689921397,-83.87096774193549
1514.0162797449434,-67.74193548387096
1515.0162904977474,-35.483870967741936
1516.0163012505511,3.225806451612903
1517.0163120033549,22.58064516129032
1518.0163227561586,25.806451612903224
1519.0163335089624,25.806451612903224
1520.0163442617663,-6.451612903225806
1521.01635501457,-51.61290322580645
1522.0163657673738,-83.87096774193549
1523.0163765201776,-90.32258064516128
1524.0163872729813,-90.32258064516128
1525.0163980257853,-70.96774193548387
1526.016408778589,-54.83870967741935
1527.0164195313928,-51.61290322580645
1528.0164302841965,-45.16129032258064
1529.0164410370005,-38.70967741935483
1530.0164517898043,-19.354838709677416
1531.016462542608,22.58064516129032
1532.0164732954117,54.83870967741935
1533.0164840482155,74.19354838709677
1534.0164948010195,67.74193548387096
1535.0165055538232,35.483870967741936
1536.016516306627,6.451612903225806
1537.0165270594307,-9.677419354838708
1538.0165378122344,-19.354838709677416
1539.0165485650384,-35.483870967741936
1540.0165593178422,-45.16129032258064
1541.016570070646,-48.387096774193544
1542.0165808234497,-74.19354838709677
1543.0165915762534,-90.32258064516128
1544.0166023290574,-93.54838709677418
1545.0166130818611,-87.09677419354838
1546.0166238346649,-64.51612903225806
1547.0166345874686,-29.03225806451613
1548.0166453402726,-6.451612903225806
1549.0166560930763,6.451612903225806
1550.01666684588,35.483870967741936
1551.0166775986838,58.06451612903226
1552.0166883514876,61.29032258064516
1553.0166991042915,51.61290322580645
1554.0167098570953,35.483870967741936
1555.016720609899,16.129032258064516
1556.0167313627028,-3.225806451612903
1557.0167421155065,-6.451612903225806
1558.0167528683105,-9.677419354838708
1559.0167636211143,-22.58064516129032
1560.016774373918,-12.903225806451612
1561.0167851267217,19.354838709677416
1562.0167958795255,58.06451612903226
1563.0168066323295,54.83870967741935
1564.0168173851332,61.29032258064516
1565.016828137937,87.09677419354838
1566.0168388907407,87.09677419354838
1567.0168496435444,74.19354838709677
1568.0168603963484,77.41935483870967
1569.0168711491522,77.41935483870967
1570.016881901956,38.70967741935483
1571.0168926547597,0.0
1572.0169034075636,-29.03225806451613
1573.0169141603674,-12.903225806451612
1574.0169249131711,-22.58064516129032
1575.0169356659749,-38.70967741935483
1576.0169464187786,-51.61290322580645
1577.0169571715826,-32.25806451612903
1578.0169679243863,-16.129032258064516
1579.01697867719,-3.225806451612903
1580.0169894299938,9.677419354838708
1581.0170001827976,12.903225806451612
1582.0170109356015,12.903225806451612
1583.0170216884053,12.903225806451612
1584.017032441209,19.354838709677416
1585.0170431940128,29.03225806451613
1586.0170539468165,41.935483870967744
1587.0170646996205,51.61290322580645
1588.0170754524243,45.16129032258064
1589.017086205228,3.225806451612903
1590.0170969580317,-54.83870967741935
1591.0171077108355,-90.32258064516128
1592.0171184636395,-80.64516129032258
1593.0171292164432,-35.483870967741936
1594.017139969247,-3.225806451612903
1595.0171507220507,6.451612903225806
1596.0171614748547,6.451612903225806
1597.0171722276584,3.225806451612903
1598.0171829804622,25.806451612903224
1599.017193733266,45.16129032258064
1600.0172044860697,38.70967741935483
1601.0172152388736,25.806451612903224
1602.0172259916774,19.354838709677416
1603.0172367444811,35.483870967741936
1604.0172474972849,51.61290322580645
1605.0172582500886,64.51612903225806
1606.0172690028926,51.61290322580645
1607.0172797556963,3.225806451612903
1608.0172905085,-35.483870967741936
1609.0173012613038,-61.29032258064516
1610.0173120141076,-67.74193548387096
1611.0173227669115,-51.61290322580645
1612.0173335197153,-35.483870967741936
1613.017344272519,-12.903225806451612
1614.0173550253228,22.58064516129032
1615.0173657781268,58.06451612903226
1616.0173765309305,64.51612903225806
1617.0173872837343,48.387096774193544
1618.017398036538,25.806451612903224
1619.0174087893417,6.451612903225806
1620.0174195421457,3.225806451612903
1621.0174302949495,12.903225806451612
1622.0174410477532,9.677419354838708
1623.017451800557,-3.225806451612903
1624.0174625533607,-25.806451612903224
1625.0174733061647,-41.935483870967744
1626.0174840589684,-58.06451612903226
1627.0174948117722,-64.51612903225806
1628.017505564576,-58.06451612903226
1629.0175163173797,-48.387096774193544
1630.0175270701836,-29.03225806451613
1631.0175378229874,12.903225806451612
1632.0175485757911,41.935483870967744
1633.0175593285949,67.74193548387096
1634.0175700813986,93.54838709677418
1635.0175808342026,96.77419354838709
1636.0175915870063,87.09677419354838
1637.01760233981,77.41935483870967
1638.0176130926138,61.29032258064516
1639.0176238454178,54.83870967741935
1640.0176345982215,41.935483870967744
1641.0176453510253,16.129032258064516
1642.017656103829,-3.225806451612903
1643.0176668566328,-6.451612903225806
1644.0176776094368,-19.354838709677416
1645.0176883622405,-12.903225806451612
1646.0176991150443,3.225806451612903
1647.017709867848,6.451612903225806
1648.0177206206517,19.354838709677416
1649.0177313734557,32.25806451612903
1650.0177421262595,45.16129032258064
1651.0177528790632,64.51612903225806
1652.017763631867,67.74193548387096
1653.0177743846707,54.83870967741935
1654.0177851374747,51.61290322580645
1655.0177958902784,45.16129032258064
1656.0178066430822,22.58064516129032
1657.017817395886,3.225806451612903
1658.0178281486897,-6.451612903225806
1659.0178389014936,9.677419354838708
1660.0178496542974,41.935483870967744
1661.0178604071011,22.58064516129032
1662.0178711599049,0.0
1663.0178819127088,-6.451612903225806
1664.0178926655126,-9.677419354838708
1665.0179034183163,-3.225806451612903
1666.01791417112,9.677419354838708
1667.0179249239238,9.677419354838708
1668.0179356767278,29.03225806451613
1669.0179464295315,61.29032258064516
1670.0179571823353,70.96774193548387
1671.017967935139,51.61290322580645
1672.0179786879428,25.806451612903224
1673.0179894407468,3.225806451612903
1674.0180001935505,9.677419354838708
1675.0180109463543,19.354838709677416
1676.018021699158,-6.451612903225806
1677.0180324519617,-12.903225806451612
1678.0180432047657,9.677419354838708
1679.0180539575695,25.806451612903224
1680.0180647103732,35.483870967741936
1681.018075463177,41.935483870967744
1682.018086215981,51.61290322580645
1683.0180969687847,58.06451612903226
1684.0181077215884,48.387096774193544
1685.0181184743922,25.806451612903224
1686.018129227196,12.903225806451612
1687.01813998,-6.451612903225806
1688.0181507328036,-32.25806451612903
1689.0181614856074,-38.70967741935483
1690.0181722384111,-48.387096774193544
1691.0181829912149,-74.19354838709677
1692.0181937440188,-83.87096774193549
1693.0182044968226,-74.19354838709677
1694.0182152496263,-48.387096774193544
1695.01822600243,-6.451612903225806
1696.0182367552338,32.25806451612903
1697.0182475080378,58.06451612903226
1698.0182582608415,64.51612903225806
1699.0182690136453,61.29032258064516
1700.018279766449,61.29032258064516
1701.0182905192528,67.74193548387096
1702.0183012720568,67.74193548387096
1703.0183120248605,61.29032258064516
1704.0183227776643,38.70967741935483
1705.018333530468,-3.225806451612903
1706.018344283272,-41.935483870967744
1707.0183550360757,-74.19354838709677
1708.0183657888795,-87.09677419354838
1709.0183765416832,-103.2258064516129
1710.018387294487,-109.6774193548387
1711.018398047291,-83.87096774193549
1712.0184088000947,-51.61290322580645
1713.0184195528984,-22.58064516129032
1714.0184303057022,9.677419354838708
1715.018441058506,29.03225806451613
1716.01845181131,25.806451612903224
1717.0184625641136,35.483870967741936
1718.0184733169174,58.06451612903226
1719.0184840697211,64.51612903225806
1720.0184948225249,48.387096774193544
1721.0185055753288,19.354838709677416
1722.0185163281326,-3.225806451612903
1723.0185270809363,-12.903225806451612
1724.01853783374,-16.129032258064516
1725.0185485865438,-29.03225806451613
1726.0185593393478,-48.387096774193544
1727.0185700921515,-58.06451612903226
1728.0185808449553,-41.935483870967744
1729.018591597759,-16.129032258064516
1730.018602350563,16.129032258064516
1731.0186131033668,29.03225806451613
1732.0186238561705,25.806451612903224
1733.0186346089743,35.483870967741936
1734.018645361778,41.935483870967744
1735.018656114582,51.61290322580645
1736.0186668673857,48.387096774193544
1737.0186776201895,29.03225806451613
1738.0186883729932,9.677419354838708
1739.018699125797,-32.25806451612903
1740.018709878601,-74.19354838709677
1741.0187206314047,-96.77419354838709
1742.0187313842084,-112.9032258064516
1743.0187421370122,-106.4516129032258
1744.018752889816,-74.19354838709677
1745.01876364262,-25.806451612903224
1746.0187743954236,22.58064516129032
1747.0187851482274,51.61290322580645
1748.0187959010311,35.483870967741936
1749.018806653835,25.806451612903224
1750.0188174066388,25.806451612903224
1751.0188281594426,22.58064516129032
1752.0188389122463,3.225806451612903
1753.01884966505,-6.451612903225806
1754.018860417854,-9.677419354838708
1755.0188711706578,-19.354838709677416
1756.0188819234615,-22.58064516129032
1757.0188926762653,-6.451612903225806
1758.018903429069,-3.225806451612903
1759.018914181873,0.0
1760.0189249346768,16.129032258064516
1761.0189356874805,38.70967741935483
1762.0189464402843,64.51612903225806
1763.018957193088,61.29032258064516
1764.018967945892,32.25806451612903
1765.0189786986957,16.129032258064516
1766.0189894514995,12.903225806451612
1767.0190002043032,0.0
1768.019010957107,-9.677419354838708
1769.019021709911,0.0
1770.0190324627147,29.03225806451613
1771.0190432155184,35.483870967741936
1772.0190539683222,12.903225806451612
1773.0190647211261,19.354838709677416
1774.01907547393,16.129032258064516
1775.0190862267336,-9.677419354838708
1776.0190969795374,-22.58064516129032
1777.0191077323411,-19.354838709677416
1778.019118485145,-6.451612903225806
1779.0191292379488,-6.451612903225806
1780.0191399907526,0.0
1781.0191507435563,16.129032258064516
1782.01916149636,29.03225806451613
1783.019172249164,25.806451612903224
1784.0191830019678,29.03225806451613
1785.0191937547715,41.935483870967744
1786.0192045075753,51.61290322580645
1787.019215260379,51.61290322580645
1788.019226013183,38.70967741935483
1789.0192367659868,19.354838709677416
1790.0192475187905,-3.225806451612903
1791.0192582715943,-16.129032258064516
1792.019269024398,-16.129032258064516
1793.019279777202,-16.129032258064516
1794.0192905300057,-12.903225806451612
1795.0193012828095,-3.225806451612903
1796.0193120356132,0.0
1797.0193227884172,3.225806451612903
1798.019333541221,19.354838709677416
1799.0193442940247,22.58064516129032
1800.0193550468284,9.677419354838708
1801.0193657996322,3.225806451612903
1802.0193765524361,3.225806451612903
1803.01938730524,-6.451612903225806
1804.0193980580436,-25.806451612903224
1805.0194088108474,-19.354838709677416
1806.0194195636511,-12.903225806451612
1807.019430316455,-12.903225806451612
1808.0194410692588,-6.451612903225806
1809.0194518220626,3.225806451612903
1810.0194625748663,32.25806451612903
1811.01947332767,54.83870967741935
1812.019484080474,64.51612903225806
1813.0194948332778,51.61290322580645
1814.0195055860816,51.61290322580645
1815.0195163388853,77.41935483870967
1816.0195270916893,87.09677419354838
1817.019537844493,77.41935483870967
1818.0195485972968,58.06451612903226
1819.0195593501005,19.354838709677416
1820.0195701029043,-6.451612903225806
1821.0195808557082,-12.903225806451612
1822.019591608512,-29.03225806451613
1823.0196023613157,-45.16129032258064
1824.0196131141195,-64.51612903225806
1825.0196238669232,-74.19354838709677
1826.0196346197272,-70.96774193548387
1827.019645372531,-58.06451612903226
1828.0196561253347,-45.16129032258064
1829.0196668781384,-29.03225806451613
1830.0196776309422,-19.354838709677416
1831.0196883837461,-16.129032258064516
1832.01969913655,3.225806451612903
1833.0197098893536,41.935483870967744
1834.0197206421574,70.96774193548387
1835.0197313949611,83.87096774193549
1836.019742147765,90.32258064516128
1837.0197529005688,80.64516129032258
1838.0197636533726,64.51612903225806
1839.0197744061763,38.70967741935483
1840.0197851589803,16.129032258064516
1841.019795911784,-6.451612903225806
1842.0198066645878,-41.935483870967744
1843.0198174173916,-64.51612903225806
1844.0198281701953,-38.70967741935483
1845.0198389229993,-9.677419354838708
1846.019849675803,0.0
1847.0198604286068,3.225806451612903
1848.0198711814105,16.129032258064516
1849.0198819342143,29.03225806451613
1850.0198926870182,38.70967741935483
1851.019903439822,41.935483870967744
1852.0199141926257,32.25806451612903
1853.0199249454295,38.70967741935483
1854.0199356982332,61.29032258064516
1855.0199464510372,77.41935483870967
1856.019957203841,80.64516129032258
1857.0199679566447,64.51612903225806
1858.0199787094484,38.70967741935483
1859.0199894622524,29.03225806451613
1860.0200002150561,12.903225806451612
1861.02001096786,-9.677419354838708
1862.0200217206636,-12.903225806451612
1863.0200324734674,-9.677419354838708
1864.0200432262714,-6.451612903225806
1865.020053979075,25.806451612903224
1866.0200647318788,48.387096774193544
1867.0200754846826,45.16129032258064
1868.0200862374863,45.16129032258064
1869.0200969902903,38.70967741935483
1870.020107743094,12.903225806451612
1871.0201184958978,-9.677419354838708
1872.0201292487016,-29.03225806451613
1873.0201400015053,-48.387096774193544
1874.0201507543093,-51.61290322580645
1875.020161507113,-12.903225806451612
1876.0201722599168,0.0
1877.0201830127205,0.0
1878.0201937655243,6.451612903225806
1879.0202045183282,-3.225806451612903
1880.020215271132,-19.354838709677416
1881.0202260239357,-9.677419354838708
1882.0202367767395,3.225806451612903
1883.0202475295434,38.70967741935483
1884.0202582823472,58.06451612903226
1885.020269035151,61.29032258064516
1886.0202797879547,51.61290322580645
1887.0202905407584,38.70967741935483
1888.0203012935624,25.806451612903224
1889.0203120463661,19.354838709677416
1890.02032279917,-3.225806451612903
1891.0203335519736,-22.58064516129032
1892.0203443047774,-38.70967741935483
1893.0203550575814,-32.25806451612903
1894.020365810385,-32.25806451612903
1895.0203765631888,-12.903225806451612
1896.0203873159926,9.677419354838708
1897.0203980687963,29.03225806451613
1898.0204088216003,48.387096774193544
1899.020419574404,61.29032258064516
1900.0204303272078,74.19354838709677
1901.0204410800116,70.96774193548387
1902.0204518328153,51.61290322580645
1903.0204625856193,25.806451612903224
1904.020473338423,-9.677419354838708
1905.0204840912268,-35.483870967741936
1906.0204948440305,-35.483870967741936
1907.0205055968345,-22.58064516129032
1908.0205163496382,-19.354838709677416
1909.020527102442,-32.25806451612903
1910.0205378552457,-19.354838709677416
1911.0205486080495,-29.03225806451613
1912.0205593608534,-9.677419354838708
1913.0205701136572,25.806451612903224
1914.020580866461,58.06451612903226
1915.0205916192647,77.41935483870967
1916.0206023720684,64.51612903225806
1917.0206131248724,54.83870967741935
1918.0206238776761,64.51612903225806
1919.02063463048,74.19354838709677
1920.0206453832836,77.41935483870967
1921.0206561360874,61.29032258064516
1922.0206668888914,45.16129032258064
1923.020677641695,41.935483870967744
1924.0206883944988,25.806451612903224
1925.0206991473026,12.903225806451612
1926.0207099001066,16.129032258064516
1927.0207206529103,9.677419354838708
1928.020731405714,16.129032258064516
1929.0207421585178,29.03225806451613
1930.0207529113216,35.483870967741936
1931.0207636641255,35.483870967741936
1932.0207744169293,38.70967741935483
1933.020785169733,54.83870967741935
1934.0207959225368,74.19354838709677
1935.0208066753405,74.19354838709677
1936.0208174281445,70.96774193548387
1937.0208281809482,70.96774193548387
1938.020838933752,58.06451612903226
1939.0208496865557,38.70967741935483
1940.0208604393595,9.677419354838708
1941.0208711921634,-19.354838709677416
1942.0208819449672,-35.483870967741936
1943.020892697771,-35.483870967741936
1944.0209034505747,-12.903225806451612
1945.0209142033784,9.677419354838708
1946.0209249561824,22.58064516129032
1947.0209357089861,41.935483870967744
1948.02094646179,64.51612903225806
1949.0209572145936,90.32258064516128
1950.0209679673976,93.54838709677418
1951.0209787202014,87.09677419354838
1952.020989473005,77.41935483870967
1953.0210002258088,80.64516129032258
1954.0210109786126,67.74193548387096
1955.0210217314166,41.935483870967744
1956.0210324842203,25.806451612903224
1957.021043237024,3.225806451612903
1958.0210539898278,-3.225806451612903
1959.0210647426316,16.129032258064516
1960.0210754954355,45.16129032258064
1961.0210862482393,54.83870967741935
1962.021097001043,64.51612903225806
1963.0211077538468,83.87096774193549
1964.0211185066505,93.54838709677418
1965.0211292594545,103.2258064516129
1966.0211400122582,90.32258064516128
1967.021150765062,74.19354838709677
1968.0211615178657,67.74193548387096
1969.0211722706695,64.51612903225806
1970.0211830234734,61.29032258064516
1971.0211937762772,54.83870967741935
1972.021204529081,22.58064516129032
1973.0212152818847,-12.903225806451612
1974.0212260346887,-29.03225806451613
1975.0212367874924,-51.61290322580645
1976.0212475402961,-80.64516129032258
1977.0212582931,-103.2258064516129
1978.0212690459036,-103.2258064516129
1979.0212797987076,-96.77419354838709
1980.0212905515114,-61.29032258064516
1981.021301304315,-22.58064516129032
1982.0213120571188,0.0
1983.0213228099226,-6.451612903225806
1984.0213335627266,-3.225806451612903
1985.0213443155303,6.451612903225806
1986.021355068334,-9.677419354838708
1987.0213658211378,-32.25806451612903
1988.0213765739416,-54.83870967741935
1989.0213873267455,-74.19354838709677
1990.0213980795493,-99.99999999999999
1991.021408832353,-119.35483870967742
1992.0214195851568,-109.6774193548387
1993.0214303379607,-58.06451612903226
1994.0214410907645,-3.225806451612903
1995.0214518435682,12.903225806451612
1996.021462596372,0.0
1997.0214733491757,-16.129032258064516
1998.0214841019797,16.129032258064516
1999.0214948547834,61.29032258064516
2000.0215056075872,83.87096774193549
2001.021516360391,87.09677419354838
2002.0215271131947,83.87096774193549
2003.0215378659987,67.74193548387096
2004.0215486188024,29.03225806451613
2005.0215593716061,-9.677419354838708
2006.02157012441,-35.483870967741936
2007.0215808772136,-51.61290322580645
2008.0215916300176,-64.51612903225806
2009.0216023828214,-80.64516129032258
2010.021613135625,-90.32258064516128
2011.0216238884288,-80.64516129032258
2012.0216346412326,-64.51612903225806
2013.0216453940366,-38.70967741935483
2014.0216561468403,3.225806451612903
2015.021666899644,38.70967741935483
2016.0216776524478,54.83870967741935
2017.0216884052518,54.83870967741935
2018.0216991580555,64.51612903225806
2019.0217099108593,70.96774193548387
2020.021720663663,54.83870967741935
2021.0217314164668,22.58064516129032
2022.0217421692707,-12.903225806451612
2023.0217529220745,-45.16129032258064
2024.0217636748782,-74.19354838709677
2025.021774427682,-83.87096774193549
2026.0217851804857,-70.96774193548387
2027.0217959332897,-48.387096774193544
2028.0218066860934,-32.25806451612903
2029.0218174388972,-45.16129032258064
2030.021828191701,-58.06451612903226
2031.0218389445047,-51.61290322580645
2032.0218496973087,-35.483870967741936
2033.0218604501124,-22.58064516129032
2034.0218712029161,-9.677419354838708
2035.02188195572,-6.451612903225806
2036.0218927085236,3.225806451612903
2037.0219034613276,-12.903225806451612
2038.0219142141314,-19.354838709677416
2039.021924966935,-9.677419354838708
2040.0219357197388,-9.677419354838708
2041.0219464725428,-3.225806451612903
2042.0219572253466,32.25806451612903
2043.0219679781503,61.29032258064516
2044.021978730954,74.19354838709677
2045.0219894837578,99.99999999999999
2046.0220002365618,132.258064516129
2047.0220109893655,190.32258064516128
2048.0220217421693,264.516129032258
2049.0220324949732,329.0322580645161
2050.0220432477768,367.741935483871
2051.0220540005807,419.3548387096774
2052.0220647533843,467.741935483871
2053.0220755061882,506.45161290322585
2054.022086258992,532.258064516129
2055.0220970117957,551.6129032258063
2056.0221077645997,567.741935483871
2057.022118517403,590.3225806451613
2058.022129270207,635.4838709677418
2059.022140023011,661.2903225806451
2060.0221507758147,680.6451612903226
2061.0221615286187,696.7741935483871
2062.022172281422,709.6774193548387
2063.022183034226,716.1290322580645
2064.02219378703,732.2580645161289
2065.0222045398336,754.8387096774193
2066.0222152926376,751.6129032258065
2067.022226045441,696.7741935483871
2068.022236798245,606.4516129032259
2069.022247551049,516.1290322580645
2070.0222583038526,429.0322580645161
2071.0222690566566,335.48387096774195
2072.0222798094605,238.70967741935485
2073.022290562264,158.06451612903226
2074.022301315068,80.64516129032258
2075.0223120678716,19.354838709677416
2076.0223228206755,-54.83870967741935
2077.0223335734795,-119.35483870967742
2078.022344326283,-174.19354838709677
2079.022355079087,-225.8064516129032
2080.0223658318905,-270.96774193548384
2081.0223765846945,-303.2258064516129
2082.0223873374985,-306.4516129032258
2083.022398090302,-277.41935483870964
2084.022408843106,-264.516129032258
2085.0224195959095,-241.93548387096774
2086.0224303487134,-222.5806451612903
2087.0224411015174,-216.12903225806448
2088.022451854321,-245.16129032258064
2089.022462607125,-283.8709677419355
2090.0224733599284,-293.54838709677415
2091.0224841127324,-293.54838709677415
2092.0224948655364,-283.8709677419355
2093.02250561834,-264.516129032258
2094.022516371144,-248.38709677419354
2095.0225271239474,-225.8064516129032
2096.0225378767514,-212.9032258064516
2097.0225486295553,-212.9032258064516
2098.022559382359,-206.4516129032258
2099.022570135163,-193.54838709677418
2100.0225808879663,-177.41935483870967
2101.0225916407703,-164.51612903225805
2102.0226023935743,-158.06451612903226
2103.022613146378,-141.93548387096774
2104.022623899182,-129.03225806451613
2105.0226346519853,-135.48387096774192
2106.0226454047893,-151.61290322580646
2107.0226561575932,-174.19354838709677
2108.0226669103968,-190.32258064516128
2109.0226776632007,-187.09677419354836
2110.0226884160043,-158.06451612903226
2111.0226991688082,-138.70967741935482
2112.022709921612,-132.258064516129
2113.0227206744157,-125.80645161290322
2114.0227314272197,-112.9032258064516
2115.0227421800237,-112.9032258064516
2116.022752932827,-112.9032258064516
2117.022763685631,-90.32258064516128
2118.0227744384347,-70.96774193548387
2119.0227851912387,-70.96774193548387
2120.0227959440426,-83.87096774193549
2121.022806696846,-93.54838709677418
2122.02281744965,-109.6774193548387
2123.0228282024536,-132.258064516129
2124.0228389552576,-161.29032258064515
2125.0228497080616,-193.54838709677418
2126.022860460865,-199.99999999999997
2127.022871213669,-174.19354838709677
2128.0228819664726,-135.48387096774192
2129.0228927192766,-119.35483870967742
2130.0229034720805,-106.4516129032258
2131.022914224884,-87.09677419354838
2132.022924977688,-64.51612903225806
2133.0229357304916,-41.935483870967744
2134.0229464832955,-41.935483870967744
2135.0229572360995,-64.51612903225806
2136.022967988903,-80.64516129032258
2137.022978741707,-96.77419354838709
2138.0229894945105,-106.4516129032258
2139.0230002473145,-116.12903225806453
2140.0230110001185,-119.35483870967742
2141.023021752922,-109.6774193548387
2142.023032505726,-109.6774193548387
2143.0230432585295,-129.03225806451613
2144.0230540113334,-129.03225806451613
2145.0230647641374,-106.4516129032258
2146.023075516941,-74.19354838709677
2147.023086269745,-48.387096774193544
2148.0230970225484,-35.483870967741936
2149.0231077753524,-22.58064516129032
2150.0231185281564,3.225806451612903
2151.02312928096,6.451612903225806
2152.023140033764,12.903225806451612
2153.0231507865674,25.806451612903224
2154.0231615393714,22.58064516129032
2155.0231722921753,16.129032258064516
2156.023183044979,6.451612903225806
2157.023193797783,-9.677419354838708
2158.0232045505863,-38.70967741935483
2159.0232153033903,-64.51612903225806
2160.0232260561943,-64.51612903225806
2161.023236808998,-45.16129032258064
2162.023247561802,-38.70967741935483
2163.0232583146058,-9.677419354838708
2164.0232690674093,25.806451612903224
2165.0232798202132,38.70967741935483
2166.0232905730168,29.03225806451613
2167.0233013258207,6.451612903225806
2168.0233120786247,16.129032258064516
2169.0233228314282,38.70967741935483
2170.023333584232,12.903225806451612
2171.0233443370357,-12.903225806451612
2172.0233550898397,-9.677419354838708
2173.0233658426437,-6.451612903225806
2174.023376595447,-38.70967741935483
2175.023387348251,-64.51612903225806
2176.0233981010547,-58.06451612903226
2177.0234088538587,-54.83870967741935
2178.0234196066626,-48.387096774193544
2179.023430359466,-41.935483870967744
2180.02344111227,-19.354838709677416
2181.0234518650736,6.451612903225806
2182.0234626178776,22.58064516129032
2183.0234733706816,12.903225806451612
2184.023484123485,3.225806451612903
2185.023494876289,22.58064516129032
2186.0235056290926,22.58064516129032
2187.0235163818966,9.677419354838708
2188.0235271347005,3.225806451612903
2189.023537887504,-9.677419354838708
2190.023548640308,-25.806451612903224
2191.0235593931116,-41.935483870967744
2192.0235701459155,-48.387096774193544
2193.0235808987195,-38.70967741935483
2194.023591651523,-16.129032258064516
2195.023602404327,-3.225806451612903
2196.0236131571305,3.225806451612903
2197.0236239099345,-9.677419354838708
2198.0236346627385,-22.58064516129032
2199.023645415542,-12.903225806451612
2200.023656168346,-6.451612903225806
2201.0236669211495,6.451612903225806
2202.0236776739534,3.225806451612903
2203.0236884267574,0.0
2204.023699179561,-12.903225806451612
2205.023709932365,-22.58064516129032
2206.023720685169,-45.16129032258064
2207.0237314379724,-70.96774193548387
2208.0237421907764,-77.41935483870967
2209.02375294358,-67.74193548387096
2210.023763696384,-48.387096774193544
2211.023774449188,-38.70967741935483
2212.0237852019914,-22.58064516129032
2213.0237959547953,3.225806451612903
2214.023806707599,22.58064516129032
2215.023817460403,29.03225806451613
2216.023828213207,22.58064516129032
2217.0238389660103,25.806451612903224
2218.0238497188143,38.70967741935483
2219.023860471618,54.83870967741935
2220.023871224422,54.83870967741935
2221.0238819772258,45.16129032258064
2222.0238927300293,45.16129032258064
2223.0239034828332,41.935483870967744
2224.0239142356368,32.25806451612903
2225.0239249884407,22.58064516129032
2226.0239357412447,9.677419354838708
2227.0239464940482,-3.225806451612903
2228.023957246852,-6.451612903225806
2229.0239679996557,3.225806451612903
2230.0239787524597,29.03225806451613
2231.0239895052637,61.29032258064516
2232.024000258067,58.06451612903226
2233.024011010871,61.29032258064516
2234.0240217636747,54.83870967741935
2235.0240325164787,58.06451612903226
2236.0240432692826,58.06451612903226
2237.024054022086,51.61290322580645
2238.02406477489,58.06451612903226
2239.0240755276936,64.51612903225806
2240.0240862804976,45.16129032258064
2241.0240970333016,9.677419354838708
2242.024107786105,-16.129032258064516
2243.024118538909,-9.677419354838708
2244.0241292917126,54.83870967741935
2245.0241400445166,96.77419354838709
2246.0241507973205,106.4516129032258
2247.024161550124,93.54838709677418
2248.024172302928,96.77419354838709
2249.024183055732,99.99999999999999
2250.0241938085355,83.87096774193549
2251.0242045613395,64.51612903225806
2252.024215314143,48.387096774193544
2253.024226066947,54.83870967741935
2254.024236819751,54.83870967741935
2255.0242475725545,51.61290322580645
2256.0242583253585,48.387096774193544
2257.024269078162,48.387096774193544
2258.024279830966,45.16129032258064
2259.02429058377,35.483870967741936
2260.0243013365734,38.70967741935483
2261.0243120893774,45.16129032258064
2262.024322842181,54.83870967741935
2263.024333594985,74.19354838709677
2264.024344347789,90.32258064516128
2265.0243551005924,103.2258064516129
2266.0243658533964,112.9032258064516
2267.0243766062,129.03225806451613
2268.024387359004,151.61290322580646
2269.024398111808,148.38709677419354
2270.0244088646114,141.93548387096774
2271.0244196174153,145.16129032258067
2272.024430370219,148.38709677419354
2273.024441123023,141.93548387096774
2274.024451875827,145.16129032258067
2275.0244626286303,141.93548387096774
2276.0244733814343,119.35483870967742
2277.024484134238,106.4516129032258
2278.024494887042,112.9032258064516
2279.0245056398458,112.9032258064516
2280.0245163926493,112.9032258064516
2281.0245271454532,103.2258064516129
2282.0245378982568,93.54838709677418
2283.0245486510607,93.54838709677418
2284.0245594038647,90.32258064516128
2285.0245701566682,93.54838709677418
2286.024580909472,93.54838709677418
2287.0245916622757,64.51612903225806
2288.0246024150797,38.70967741935483
2289.0246131678837,25.806451612903224
2290.024623920687,16.129032258064516
2291.024634673491,12.903225806451612
2292.0246454262947,3.225806451612903
2293.0246561790987,-9.677419354838708
2294.0246669319026,3.225806451612903
2295.024677684706,25.806451612903224
2296.02468843751,64.51612903225806
2297.024699190314,93.54838709677418
2298.0247099431176,116.12903225806453
2299.0247206959216,151.61290322580646
2300.024731448725,177.41935483870967
2301.024742201529,180.64516129032256
2302.024752954333,161.29032258064515
2303.0247637071366,119.35483870967742
2304.0247744599405,93.54838709677418
2305.024785212744,80.64516129032258
2306.024795965548,61.29032258064516
2307.024806718352,51.61290322580645
2308.0248174711555,32.25806451612903
2309.0248282239595,19.354838709677416
2310.024838976763,35.483870967741936
2311.024849729567,54.83870967741935
2312.024860482371,67.74193548387096
2313.0248712351745,87.09677419354838
2314.0248819879785,58.06451612903226
2315.024892740782,35.483870967741936
2316.024903493586,41.935483870967744
2317.02491424639,48.387096774193544
2318.0249249991934,45.16129032258064
2319.0249357519974,48.387096774193544
2320.024946504801,51.61290322580645
2321.024957257605,58.06451612903226
2322.024968010409,64.51612903225806
2323.0249787632124,58.06451612903226
2324.0249895160164,51.61290322580645
2325.02500026882,38.70967741935483
2326.025011021624,25.806451612903224
2327.025021774428,32.25806451612903
2328.0250325272314,41.935483870967744
2329.0250432800353,45.16129032258064
2330.025054032839,38.70967741935483
2331.025064785643,41.935483870967744
2332.025075538447,48.387096774193544
2333.0250862912503,41.935483870967744
2334.0250970440543,25.806451612903224
2335.025107796858,19.354838709677416
2336.025118549662,12.903225806451612
2337.0251293024658,-3.225806451612903
2338.0251400552693,-32.25806451612903
2339.0251508080732,-67.74193548387096
2340.025161560877,-90.32258064516128
2341.0251723136807,-93.54838709677418
2342.0251830664847,-93.54838709677418
2343.0251938192882,-83.87096774193549
2344.025204572092,-77.41935483870967
2345.025215324896,-67.74193548387096
2346.0252260776997,-67.74193548387096
2347.0252368305037,-67.74193548387096
2348.025247583307,-64.51612903225806
2349.025258336111,-74.19354838709677
2350.025269088915,-61.29032258064516
2351.0252798417187,-41.935483870967744
2352.0252905945226,-51.61290322580645
2353.025301347326,-74.19354838709677
2354.02531210013,-90.32258064516128
2355.025322852934,-87.09677419354838
2356.0253336057376,-87.09677419354838
2357.0253443585416,-103.2258064516129
2358.025355111345,-119.35483870967742
2359.025365864149,-122.58064516129032
2360.025376616953,-116.12903225806453
2361.0253873697566,-116.12903225806453
2362.0253981225605,-116.12903225806453
2363.025408875364,-93.54838709677418
2364.025419628168,-58.06451612903226
2365.025430380972,-35.483870967741936
2366.0254411337755,-29.03225806451613
2367.0254518865795,-35.483870967741936
2368.025462639383,-32.25806451612903
2369.025473392187,-35.483870967741936
2370.025484144991,-41.935483870967744
2371.0254948977945,-58.06451612903226
2372.0255056505985,-90.32258064516128
2373.025516403402,-125.80645161290322
2374.025527156206,-164.51612903225805
2375.02553790901,-199.99999999999997
2376.0255486618134,-219.3548387096774
2377.0255594146174,-206.4516129032258
2378.025570167421,-174.19354838709677
2379.025580920225,-164.51612903225805
2380.025591673029,-161.29032258064515
2381.0256024258324,-161.29032258064515
2382.0256131786364,-145.16129032258067
2383.0256239314404,-119.35483870967742
2384.025634684244,-103.2258064516129
2385.025645437048,-96.77419354838709
2386.0256561898514,-93.54838709677418
2387.0256669426553,-99.99999999999999
2388.0256776954593,-125.80645161290322
2389.025688448263,-141.93548387096774
2390.025699201067,-154.83870967741933
2391.0257099538703,-161.29032258064515
2392.0257207066743,-158.06451612903226
2393.0257314594783,-141.93548387096774
2394.025742212282,-129.03225806451613
2395.0257529650858,-112.9032258064516
2396.0257637178893,-96.77419354838709
2397.0257744706932,-90.32258064516128
2398.025785223497,-90.32258064516128
2399.0257959763007,-112.9032258064516
2400.0258067291047,-125.80645161290322
2401.0258174819082,-125.80645161290322
2402.025828234712,-112.9032258064516
2403.025838987516,-90.32258064516128
2404.0258497403197,-61.29032258064516
2405.0258604931237,-41.935483870967744
2406.025871245927,-48.387096774193544
2407.025881998731,-93.54838709677418
2408.025892751535,-125.80645161290322
2409.0259035043387,-135.48387096774192
2410.0259142571426,-112.9032258064516
2411.025925009946,-96.77419354838709
2412.02593576275,-93.54838709677418
2413.025946515554,-77.41935483870967
2414.0259572683576,-74.19354838709677
2415.0259680211616,-87.09677419354838
2416.025978773965,-74.19354838709677
2417.025989526769,-61.29032258064516
2418.026000279573,-38.70967741935483
2419.0260110323766,-16.129032258064516
2420.0260217851805,-25.806451612903224
2421.026032537984,-61.29032258064516
2422.026043290788,-83.87096774193549
2423.026054043592,-103.2258064516129
2424.0260647963955,-125.80645161290322
2425.0260755491995,-129.03225806451613
2426.026086302003,-119.35483870967742
2427.026097054807,-119.35483870967742
2428.026107807611,-119.35483870967742
2429.0261185604145,-109.6774193548387
2430.0261293132185,-96.77419354838709
2431.0261400660224,-74.19354838709677
2432.026150818826,-61.29032258064516
2433.02616157163,-48.387096774193544
2434.0261723244334,-16.129032258064516
2435.0261830772374,3.225806451612903
2436.0261938300414,-6.451612903225806
2437.026204582845,-16.129032258064516
2438.026215335649,-35.483870967741936
2439.0262260884524,-77.41935483870967
2440.0262368412564,-80.64516129032258
2441.0262475940604,-83.87096774193549
2442.026258346864,-80.64516129032258
2443.026269099668,-87.09677419354838
2444.0262798524714,-99.99999999999999
2445.0262906052753,-96.77419354838709
2446.0263013580793,-64.51612903225806
2447.026312110883,-29.03225806451613
2448.026322863687,-9.677419354838708
2449.0263336164903,-6.451612903225806
2450.0263443692943,3.225806451612903
2451.0263551220983,0.0
2452.026365874902,-6.451612903225806
2453.0263766277058,-19.354838709677416
2454.0263873805093,-51.61290322580645
2455.0263981333133,-83.87096774193549
2456.026408886117,-99.99999999999999
2457.0264196389207,-99.99999999999999
2458.0264303917247,-103.2258064516129
2459.0264411445282,-96.77419354838709
2460.026451897332,-87.09677419354838
2461.026462650136,-74.19354838709677
2462.0264734029397,-77.41935483870967
2463.0264841557437,-77.41935483870967
2464.026494908547,-74.19354838709677
2465.026505661351,-64.51612903225806
2466.026516414155,-48.387096774193544
2467.0265271669587,-38.70967741935483
2468.0265379197626,-29.03225806451613
2469.026548672566,-41.935483870967744
2470.02655942537,-48.387096774193544
2471.026570178174,-48.387096774193544
2472.0265809309776,-58.06451612903226
2473.0265916837816,-61.29032258064516
2474.0266024365856,-64.51612903225806
2475.026613189389,-80.64516129032258
2476.026623942193,-96.77419354838709
2477.0266346949966,-90.32258064516128
2478.0266454478005,-80.64516129032258
2479.0266562006045,-64.51612903225806
2480.026666953408,-54.83870967741935
2481.026677706212,-58.06451612903226
2482.0266884590155,-48.387096774193544
2483.0266992118195,-29.03225806451613
2484.0267099646235,-25.806451612903224
2485.026720717427,-29.03225806451613
2486.026731470231,-9.677419354838708
2487.0267422230345,3.225806451612903
2488.0267529758385,19.354838709677416
2489.0267637286424,12.903225806451612
2490.026774481446,-16.129032258064516
2491.02678523425,-51.61290322580645
2492.0267959870534,-51.61290322580645
2493.0268067398574,-35.483870967741936
2494.0268174926614,-35.483870967741936
2495.026828245465,-19.354838709677416
2496.026838998269,25.806451612903224
2497.0268497510724,48.387096774193544
2498.0268605038764,35.483870967741936
2499.0268712566804,19.354838709677416
2500.026882009484,-3.225806451612903
2501.026892762288,-25.806451612903224
2502.0269035150914,-29.03225806451613
2503.0269142678953,-29.03225806451613
2504.0269250206993,-41.935483870967744
2505.026935773503,-58.06451612903226
2506.026946526307,-67.74193548387096
2507.0269572791103,-80.64516129032258
2508.0269680319143,-109.6774193548387
2509.0269787847183,-112.9032258064516
2510.026989537522,-87.09677419354838
2511.0270002903258,-58.06451612903226
2512.0270110431293,-25.806451612903224
2513.0270217959333,16.129032258064516
2514.027032548737,51.61290322580645
2515.0270433015407,77.41935483870967
2516.0270540543447,74.19354838709677
2517.0270648071487,67.74193548387096
2518.027075559952,74.19354838709677
2519.027086312756,54.83870967741935
2520.0270970655597,32.25806451612903
2521.0271078183637,9.677419354838708
2522.0271185711676,-6.451612903225806
2523.027129323971,-9.677419354838708
2524.027140076775,-25.806451612903224
2525.0271508295787,-35.483870967741936
2526.0271615823826,-32.25806451612903
2527.0271723351866,-12.903225806451612
2528.02718308799,9.677419354838708
2529.027193840794,9.677419354838708
2530.0272045935976,16.129032258064516
2531.0272153464016,32.25806451612903
2532.0272260992056,41.935483870967744
2533.027236852009,35.483870967741936
2534.027247604813,29.03225806451613
2535.0272583576166,25.806451612903224
2536.0272691104205,3.225806451612903
2537.0272798632245,0.0
2538.027290616028,0.0
2539.027301368832,0.0
2540.0273121216355,-25.806451612903224
2541.0273228744395,-64.51612903225806
2542.0273336272435,-61.29032258064516
2543.027344380047,-35.483870967741936
2544.027355132851,-25.806451612903224
2545.0273658856545,-9.677419354838708
2546.0273766384585,16.129032258064516
2547.0273873912624,38.70967741935483
2548.027398144066,58.06451612903226
2549.02740889687,54.83870967741935
2550.0274196496734,25.806451612903224
2551.0274304024774,0.0
2552.0274411552814,0.0
2553.027451908085,9.677419354838708
2554.027462660889,9.677419354838708
2555.0274734136924,6.451612903225806
2556.0274841664964,-6.451612903225806
2557.0274949193004,-22.58064516129032
2558.027505672104,-48.387096774193544
2559.027516424908,-74.19354838709677
2560.027527177712,-80.64516129032258
2561.0275379305153,-77.41935483870967
2562.0275486833193,-61.29032258064516
2563.027559436123,-38.70967741935483
2564.027570188927,-6.451612903225806
2565.027580941731,19.354838709677416
2566.0275916945343,38.70967741935483
2567.0276024473383,67.74193548387096
2568.027613200142,93.54838709677418
2569.0276239529458,87.09677419354838
2570.0276347057497,74.19354838709677
2571.0276454585533,54.83870967741935
2572.027656211357,25.806451612903224
2573.0276669641607,-3.225806451612903
2574.0276777169647,-35.483870967741936
2575.0276884697687,-45.16129032258064
2576.027699222572,-3.225806451612903
2577.027709975376,22.58064516129032
2578.0277207281797,25.806451612903224
2579.0277314809837,38.70967741935483
2580.0277422337876,38.70967741935483
2581.027752986591,22.58064516129032
2582.027763739395,25.806451612903224
2583.0277744921987,48.387096774193544
2584.0277852450026,77.41935483870967
2585.0277959978066,83.87096774193549
2586.02780675061,51.61290322580645
2587.027817503414,9.677419354838708
2588.0278282562176,-19.354838709677416
2589.0278390090216,-48.387096774193544
2590.0278497618256,-45.16129032258064
2591.027860514629,-25.806451612903224
2592.027871267433,-19.354838709677416
2593.0278820202366,12.903225806451612
2594.0278927730405,38.70967741935483
2595.0279035258445,54.83870967741935
2596.027914278648,61.29032258064516
2597.027925031452,74.19354838709677
2598.0279357842555,90.32258064516128
2599.0279465370595,103.2258064516129
2600.0279572898635,96.77419354838709
2601.027968042667,87.09677419354838
2602.027978795471,90.32258064516128
2603.0279895482745,106.4516129032258
2604.0280003010785,112.9032258064516
2605.0280110538824,77.41935483870967
2606.028021806686,-12.903225806451612
2607.02803255949,-109.6774193548387
2608.028043312294,-151.61290322580646
2609.0280540650974,-145.16129032258067
2610.0280648179014,-141.93548387096774
2611.028075570705,-135.48387096774192
2612.028086323509,-99.99999999999999
2613.028097076313,-48.387096774193544
2614.0281078291164,-12.903225806451612
2615.0281185819204,9.677419354838708
2616.028129334724,22.58064516129032
2617.028140087528,25.806451612903224
2618.028150840332,22.58064516129032
2619.0281615931353,25.806451612903224
2620.0281723459393,25.806451612903224
2621.028183098743,29.03225806451613
2622.028193851547,29.03225806451613
2623.028204604351,29.03225806451613
2624.0282153571543,6.451612903225806
2625.0282261099583,-6.451612903225806
2626.028236862762,-3.225806451612903
2627.0282476155658,-12.903225806451612
2628.0282583683697,-29.03225806451613
2629.0282691211733,-25.806451612903224
2630.028279873977,12.903225806451612
2631.0282906267807,12.903225806451612
2632.0283013795847,22.58064516129032
2633.0283121323887,51.61290322580645
2634.028322885192,67.74193548387096
2635.028333637996,45.16129032258064
2636.0283443907997,29.03225806451613
2637.0283551436037,38.70967741935483
2638.0283658964076,45.16129032258064
2639.028376649211,25.806451612903224
2640.028387402015,3.225806451612903
2641.0283981548187,-29.03225806451613
2642.0284089076226,-41.935483870967744
2643.0284196604266,-32.25806451612903
2644.02843041323,-12.903225806451612
2645.028441166034,-12.903225806451612
2646.0284519188376,-22.58064516129032
2647.0284626716416,-16.129032258064516
2648.0284734244456,-6.451612903225806
2649.028484177249,9.677419354838708
2650.028494930053,38.70967741935483
2651.028505682857,70.96774193548387
2652.0285164356605,77.41935483870967
2653.0285271884645,58.06451612903226
2654.028537941268,29.03225806451613
2655.028548694072,16.129032258064516
2656.028559446876,9.677419354838708
2657.0285701996795,-9.677419354838708
2658.0285809524835,-12.903225806451612
2659.028591705287,-22.58064516129032
2660.028602458091,-16.129032258064516
2661.028613210895,-3.225806451612903
2662.0286239636985,25.806451612903224
2663.0286347165024,58.06451612903226
2664.028645469306,77.41935483870967
2665.02865622211,70.96774193548387
2666.028666974914,67.74193548387096
2667.0286777277174,67.74193548387096
2668.0286884805214,67.74193548387096
2669.028699233325,58.06451612903226
2670.028709986129,45.16129032258064
2671.028720738933,38.70967741935483
2672.0287314917364,25.806451612903224
2673.0287422445404,3.225806451612903
2674.028752997344,-12.903225806451612
2675.028763750148,-35.483870967741936
2676.028774502952,-51.61290322580645
2677.0287852557553,-51.61290322580645
2678.0287960085593,-32.25806451612903
2679.028806761363,-16.129032258064516
2680.028817514167,-6.451612903225806
2681.028828266971,0.0
2682.0288390197743,6.451612903225806
2683.0288497725783,25.806451612903224
2684.028860525382,16.129032258064516
2685.0288712781858,-6.451612903225806
2686.0288820309897,-6.451612903225806
2687.0288927837933,-6.451612903225806
2688.028903536597,-3.225806451612903
2689.0289142894007,-19.354838709677416
2690.0289250422047,-48.387096774193544
2691.0289357950087,-74.19354838709677
2692.028946547812,-103.2258064516129
2693.028957300616,-112.9032258064516
2694.02896805342,-93.54838709677418
2695.0289788062237,-61.29032258064516
2696.0289895590277,-6.451612903225806
2697.029000311831,45.16129032258064
2698.029011064635,74.19354838709677
2699.029021817439,103.2258064516129
2700.0290325702426,125.80645161290322
2701.0290433230466,112.9032258064516
2702.02905407585,93.54838709677418
2703.029064828654,77.41935483870967
2704.029075581458,38.70967741935483
2705.0290863342616,6.451612903225806
2706.0290970870656,-12.903225806451612
2707.029107839869,-22.58064516129032
2708.029118592673,-19.354838709677416
2709.029129345477,-35.483870967741936
2710.0291400982805,-41.935483870967744
2711.0291508510845,-41.935483870967744
2712.029161603888,-35.483870967741936
2713.029172356692,-38.70967741935483
2714.029183109496,-35.483870967741936
2715.0291938622995,-25.806451612903224
2716.0292046151035,-19.354838709677416
2717.029215367907,-6.451612903225806
2718.029226120711,29.03225806451613
2719.029236873515,48.387096774193544
2720.0292476263185,38.70967741935483
2721.0292583791224,3.225806451612903
2722.029269131926,-9.677419354838708
2723.02927988473,-16.129032258064516
2724.029290637534,-25.806451612903224
2725.0293013903374,-9.677419354838708
2726.0293121431414,6.451612903225806
2727.029322895945,-3.225806451612903
2728.029333648749,-19.354838709677416
2729.029344401553,-19.354838709677416
2730.0293551543564,12.903225806451612
2731.0293659071604,45.16129032258064
2732.029376659964,51.61290322580645
2733.029387412768,54.83870967741935
2734.029398165572,58.06451612903226
2735.0294089183753,58.06451612903226
2736.0294196711793,29.03225806451613
2737.029430423983,32.25806451612903
2738.029441176787,41.935483870967744
2739.029451929591,35.483870967741936
2740.0294626823943,22.58064516129032
2741.0294734351983,6.451612903225806
2742.0294841880022,-6.451612903225806
2743.0294949408058,-6.451612903225806
2744.0295056936097,-3.225806451612903
2745.0295164464133,16.129032258064516
2746.0295271992172,45.16129032258064
2747.029537952021,51.61290322580645
2748.0295487048247,29.03225806451613
2749.0295594576287,22.58064516129032
2750.029570210432,25.806451612903224
2751.029580963236,29.03225806451613
2752.02959171604,19.354838709677416
2753.0296024688437,16.129032258064516
2754.0296132216477,12.903225806451612
2755.029623974451,12.903225806451612
2756.029634727255,9.677419354838708
2757.029645480059,6.451612903225806
2758.0296562328626,-6.451612903225806
2759.0296669856666,-3.225806451612903
2760.02967773847,-3.225806451612903
2761.029688491274,-12.903225806451612
2762.029699244078,-22.58064516129032
2763.0297099968816,-25.806451612903224
2764.0297207496856,-16.129032258064516
2765.029731502489,0.0
2766.029742255293,6.451612903225806
2767.029753008097,22.58064516129032
2768.0297637609006,48.387096774193544
2769.0297745137045,64.51612903225806
2770.029785266508,70.96774193548387
2771.029796019312,70.96774193548387
2772.029806772116,61.29032258064516
2773.0298175249195,32.25806451612903
2774.0298282777235,0.0
2775.029839030527,0.0
2776.029849783331,-9.677419354838708
2777.029860536135,-25.806451612903224
2778.0298712889385,-51.61290322580645
2779.0298820417424,-35.483870967741936
2780.029892794546,0.0
2781.02990354735,16.129032258064516
2782.029914300154,38.70967741935483
2783.0299250529574,61.29032258064516
2784.0299358057614,64.51612903225806
2785.0299465585654,61.29032258064516
2786.029957311369,58.06451612903226
2787.029968064173,54.83870967741935
2788.0299788169764,32.25806451612903
2789.0299895697804,-9.677419354838708
2790.0300003225843,-48.387096774193544
2791.030011075388,-58.06451612903226
2792.030021828192,-64.51612903225806
2793.0300325809953,-51.61290322580645
2794.0300433337993,-35.483870967741936
2795.0300540866033,-6.451612903225806
2796.030064839407,29.03225806451613
2797.030075592211,35.483870967741936
2798.0300863450143,41.935483870967744
2799.0300970978183,45.16129032258064
2800.0301078506222,41.935483870967744
2801.0301186034258,45.16129032258064
2802.0301293562297,45.16129032258064
2803.0301401090333,25.806451612903224
2804.0301508618372,9.677419354838708
2805.030161614641,-6.451612903225806
2806.0301723674447,-38.70967741935483
2807.0301831202487,-70.96774193548387
2808.030193873052,-87.09677419354838
2809.030204625856,-70.96774193548387
2810.03021537866,-35.483870967741936
2811.0302261314637,-9.677419354838708
2812.0302368842677,0.0
2813.030247637071,6.451612903225806
2814.030258389875,16.129032258064516
2815.030269142679,38.70967741935483
2816.0302798954826,70.96774193548387
2817.0302906482866,90.32258064516128
2818.03030140109,93.54838709677418
2819.030312153894,93.54838709677418
2820.030322906698,83.87096774193549
2821.0303336595016,67.74193548387096
2822.0303444123056,48.387096774193544
2823.030355165109,9.677419354838708
2824.030365917913,-25.806451612903224
2825.030376670717,-41.935483870967744
2826.0303874235206,-48.387096774193544
2827.0303981763245,-32.25806451612903
2828.0304089291285,-25.806451612903224
2829.030419681932,-25.806451612903224
2830.030430434736,-29.03225806451613
2831.0304411875395,-19.354838709677416
2832.0304519403435,-29.03225806451613
2833.0304626931475,-29.03225806451613
2834.030473445951,-25.806451612903224
2835.030484198755,-19.354838709677416
2836.0304949515585,-29.03225806451613
2837.0305057043624,-41.935483870967744
2838.0305164571664,-51.61290322580645
2839.03052720997,-64.51612903225806
2840.030537962774,-74.19354838709677
2841.0305487155774,-67.74193548387096
2842.0305594683814,-41.935483870967744
2843.0305702211854,-19.354838709677416
2844.030580973989,-9.677419354838708
2845.030591726793,25.806451612903224
2846.0306024795964,48.387096774193544
2847.0306132324004,41.935483870967744
2848.0306239852043,38.70967741935483
2849.030634738008,61.29032258064516
2850.030645490812,67.74193548387096
2851.0306562436153,64.51612903225806
2852.0306669964193,48.387096774193544
2853.0306777492233,35.483870967741936
2854.030688502027,45.16129032258064
2855.030699254831,35.483870967741936
2856.0307100076343,29.03225806451613
2857.0307207604383,25.806451612903224
2858.0307315132422,6.451612903225806
2859.0307422660458,-9.677419354838708
2860.0307530188497,-38.70967741935483
2861.0307637716533,-12.903225806451612
2862.0307745244572,0.0
2863.030785277261,-6.451612903225806
2864.0307960300647,-9.677419354838708
2865.0308067828687,-9.677419354838708
2866.030817535672,6.451612903225806
2867.030828288476,19.354838709677416
2868.03083904128,48.387096774193544
2869.0308497940837,80.64516129032258
2870.0308605468877,74.19354838709677
2871.030871299691,61.29032258064516
2872.030882052495,61.29032258064516
2873.030892805299,64.51612903225806
2874.0309035581026,35.483870967741936
2875.0309143109066,3.225806451612903
2876.0309250637106,-12.903225806451612
2877.030935816514,-12.903225806451612
2878.030946569318,3.225806451612903
2879.0309573221216,12.903225806451612
2880.0309680749256,25.806451612903224
2881.0309788277295,35.483870967741936
2882.030989580533,35.483870967741936
2883.031000333337,29.03225806451613
2884.0310110861406,9.677419354838708
2885.0310218389445,-12.903225806451612
2886.0310325917485,-19.354838709677416
2887.031043344552,-6.451612903225806
2888.031054097356,22.58064516129032
2889.0310648501595,25.806451612903224
2890.0310756029635,6.451612903225806
2891.0310863557675,0.0
2892.031097108571,12.903225806451612
2893.031107861375,29.03225806451613
2894.0311186141785,29.03225806451613
2895.0311293669824,25.806451612903224
2896.0311401197864,25.806451612903224
2897.03115087259,22.58064516129032
2898.031161625394,45.16129032258064
2899.0311723781974,67.74193548387096
2900.0311831310014,83.87096774193549
2901.0311938838054,93.54838709677418
2902.031204636609,93.54838709677418
2903.031215389413,80.64516129032258
2904.0312261422164,70.96774193548387
2905.0312368950204,67.74193548387096
2906.0312476478243,83.87096774193549
2907.031258400628,116.12903225806453
2908.031269153432,119.35483870967742
2909.0312799062353,96.77419354838709
2910.0312906590393,87.09677419354838
2911.0313014118433,87.09677419354838
2912.031312164647,74.19354838709677
2913.031322917451,54.83870967741935
2914.0313336702543,41.935483870967744
2915.0313444230583,48.387096774193544
2916.0313551758622,54.83870967741935
2917.0313659286658,35.483870967741936
2918.0313766814697,9.677419354838708
2919.0313874342737,9.677419354838708
2920.0313981870772,12.903225806451612
2921.031408939881,3.225806451612903
2922.0314196926847,6.451612903225806
2923.0314304454887,9.677419354838708
2924.0314411982927,3.225806451612903
2925.031451951096,6.451612903225806
2926.0314627039,12.903225806451612
2927.0314734567037,12.903225806451612
2928.0314842095077,22.58064516129032
2929.0314949623116,32.25806451612903
2930.031505715115,54.83870967741935
2931.031516467919,70.96774193548387
2932.0315272207226,67.74193548387096
2933.0315379735266,58.06451612903226
2934.0315487263306,61.29032258064516
2935.031559479134,83.87096774193549
2936.031570231938,87.09677419354838
2937.0315809847416,70.96774193548387
2938.0315917375456,54.83870967741935
2939.0316024903495,38.70967741935483
2940.031613243153,29.03225806451613
2941.031623995957,16.129032258064516
2942.0316347487606,-9.677419354838708
2943.0316455015645,-38.70967741935483
2944.0316562543685,-58.06451612903226
2945.031667007172,-77.41935483870967
2946.031677759976,-80.64516129032258
2947.0316885127795,-51.61290322580645
2948.0316992655835,-6.451612903225806
2949.0317100183875,35.483870967741936
2950.031720771191,48.387096774193544
2951.031731523995,64.51612903225806
2952.0317422767985,64.51612903225806
2953.0317530296024,54.83870967741935
2954.0317637824064,32.25806451612903
2955.03177453521,29.03225806451613
2956.031785288014,25.806451612903224
2957.0317960408174,19.354838709677416
2958.0318067936214,12.903225806451612
2959.0318175464254,0.0
2960.031828299229,-25.806451612903224
2961.031839052033,-41.935483870967744
2962.031849804837,-41.935483870967744
2963.0318605576404,-32.25806451612903
2964.0318713104443,-6.451612903225806
2965.031882063248,25.806451612903224
2966.031892816052,41.935483870967744
2967.031903568856,51.61290322580645
2968.0319143216593,64.51612903225806
2969.0319250744633,51.61290322580645
2970.031935827267,19.354838709677416
2971.031946580071,-3.225806451612903
2972.0319573328748,-29.03225806451613
2973.0319680856783,-54.83870967741935
2974.0319788384822,-77.41935483870967
2975.0319895912858,-87.09677419354838
2976.0320003440897,-77.41935483870967
2977.0320110968937,-58.06451612903226
2978.0320218496972,-51.61290322580645
2979.032032602501,-35.483870967741936
2980.0320433553047,-12.903225806451612
2981.0320541081087,3.225806451612903
2982.0320648609127,9.677419354838708
2983.032075613716,35.483870967741936
2984.03208636652,45.16129032258064
2985.0320971193237,38.70967741935483
2986.0321078721277,16.129032258064516
2987.0321186249316,-19.354838709677416
2988.032129377735,-45.16129032258064
2989.032140130539,-67.74193548387096
2990.0321508833426,-87.09677419354838
2991.0321616361466,-77.41935483870967
2992.0321723889506,-54.83870967741935
2993.032183141754,-35.483870967741936
2994.032193894558,-25.806451612903224
2995.0322046473616,-19.354838709677416
2996.0322154001656,3.225806451612903
2997.0322261529695,38.70967741935483
2998.032236905773,70.96774193548387
2999.032247658577,93.54838709677418
3000.0322584113806,103.2258064516129
3001.0322691641845,119.35483870967742
3002.0322799169885,180.64516129032256
3003.032290669792,261.2903225806452
3004.032301422596,325.8064516129032
3005.0323121753995,390.3225806451613
3006.0323229282035,451.6129032258064
3007.0323336810075,470.9677419354839
3008.032344433811,493.54838709677415
3009.032355186615,532.258064516129
3010.032365939419,580.6451612903227
3011.0323766922224,593.5483870967741
3012.0323874450264,606.4516129032259
3013.03239819783,619.3548387096773
3014.032408950634,629.0322580645161
3015.032419703438,658.0645161290322
3016.0324304562414,680.6451612903226
3017.0324412090454,709.6774193548387
3018.032451961849,741.9354838709677
3019.032462714653,764.5161290322579
3020.032473467457,751.6129032258065
3021.0324842202604,712.9032258064516
3022.0324949730643,677.4193548387096
3023.032505725868,629.0322580645161
3024.032516478672,522.5806451612904
3025.032527231476,422.5806451612903
3026.0325379842793,338.7096774193548
3027.0325487370833,258.06451612903226
3028.032559489887,193.54838709677418
3029.032570242691,122.58064516129032
3030.0325809954948,54.83870967741935
3031.0325917482983,0.0
3032.0326025011022,-61.29032258064516
3033.0326132539058,-135.48387096774192
3034.0326240067097,-193.54838709677418
3035.0326347595137,-232.25806451612905
3036.0326455123172,-261.2903225806452
3037.032656265121,-296.7741935483871
3038.0326670179247,-325.8064516129032
3039.0326777707287,-348.38709677419354
3040.0326885235327,-364.51612903225805
3041.032699276336,-390.3225806451613
3042.03271002914,-393.5483870967742
3043.0327207819437,-358.06451612903226
3044.0327315347477,-325.8064516129032
3045.0327422875516,-296.7741935483871
3046.032753040355,-251.61290322580643
3047.032763793159,-196.7741935483871
3048.0327745459626,-148.38709677419354
3049.0327852987666,-132.258064516129
3050.0327960515706,-119.35483870967742
3051.032806804374,-116.12903225806453
3052.032817557178,-119.35483870967742
3053.032828309982,-125.80645161290322
3054.0328390627856,-141.93548387096774
3055.0328498155895,-161.29032258064515
3056.032860568393,-167.74193548387098
3057.032871321197,-167.74193548387098
3058.032882074001,-154.83870967741933
3059.0328928268045,-135.48387096774192
3060.0329035796085,-112.9032258064516
3061.032914332412,-99.99999999999999
3062.032925085216,-93.54838709677418
3063.03293583802,-77.41935483870967
3064.0329465908235,-54.83870967741935
3065.0329573436275,-38.70967741935483
3066.032968096431,-45.16129032258064
3067.032978849235,-61.29032258064516
3068.032989602039,-67.74193548387096
3069.0330003548424,-90.32258064516128
3070.0330111076464,-96.77419354838709
3071.03302186045,-109.6774193548387
3072.033032613254,-125.80645161290322
3073.033043366058,-151.61290322580646
3074.0330541188614,-167.74193548387098
3075.0330648716654,-177.41935483870967
3076.033075624469,-183.8709677419355
3077.033086377273,-193.54838709677418
3078.033097130077,-187.09677419354836
3079.0331078828804,-167.74193548387098
3080.0331186356843,-141.93548387096774
3081.033129388488,-122.58064516129032
3082.033140141292,-103.2258064516129
3083.033150894096,-87.09677419354838
3084.0331616468993,-87.09677419354838
3085.0331723997033,-64.51612903225806
3086.033183152507,-67.74193548387096
3087.033193905311,-90.32258064516128
3088.0332046581148,-125.80645161290322
3089.0332154109183,-138.70967741935482
3090.0332261637222,-158.06451612903226
3091.0332369165258,-167.74193548387098
3092.0332476693297,-148.38709677419354
3093.0332584221337,-138.70967741935482
3094.0332691749372,-122.58064516129032
3095.033279927741,-83.87096774193549
3096.033290680545,-58.06451612903226
3097.0333014333487,-48.387096774193544
3098.0333121861527,-41.935483870967744
3099.033322938956,-29.03225806451613
3100.03333369176,-19.354838709677416
3101.033344444564,-6.451612903225806
3102.0333551973677,-25.806451612903224
3103.0333659501716,-41.935483870967744
3104.033376702975,-67.74193548387096
3105.033387455779,-83.87096774193549
3106.033398208583,-77.41935483870967
3107.0334089613866,-25.806451612903224
3108.0334197141906,29.03225806451613
3109.033430466994,19.354838709677416
3110.033441219798,-3.225806451612903
3111.033451972602,-9.677419354838708
3112.0334627254056,-22.58064516129032
3113.0334734782095,-19.354838709677416
3114.033484231013,-12.903225806451612
3115.033494983817,-16.129032258064516
3116.033505736621,-19.354838709677416
3117.0335164894245,-32.25806451612903
3118.0335272422285,-45.16129032258064
3119.033537995032,-61.29032258064516
3120.033548747836,-61.29032258064516
3121.03355950064,-41.935483870967744
3122.0335702534435,-64.51612903225806
3123.0335810062475,-99.99999999999999
3124.033591759051,-112.9032258064516
3125.033602511855,-151.61290322580646
3126.033613264659,-203.2258064516129
3127.0336240174624,-174.19354838709677
3128.0336347702664,-122.58064516129032
3129.03364552307,-80.64516129032258
3130.033656275874,-48.387096774193544
3131.033667028678,-35.483870967741936
3132.0336777814814,12.903225806451612
3133.0336885342854,64.51612903225806
3134.033699287089,90.32258064516128
3135.033710039893,93.54838709677418
3136.033720792697,51.61290322580645
3137.0337315455004,9.677419354838708
3138.0337422983043,-12.903225806451612
3139.0337530511083,-16.129032258064516
3140.033763803912,-51.61290322580645
3141.033774556716,-83.87096774193549
3142.0337853095193,-96.77419354838709
3143.0337960623233,-109.6774193548387
3144.0338068151273,-112.9032258064516
3145.033817567931,-109.6774193548387
3146.0338283207348,-106.4516129032258
3147.0338390735383,-99.99999999999999
3148.0338498263422,-90.32258064516128
3149.033860579146,-58.06451612903226
