timestamp,valores
0.0,-61.29032258064516
1.0000354622504344,-48.387096774193544
2.0000709245008688,-41.935483870967744
3.000106386751303,-22.58064516129032
4.0001418490017375,-3.225806451612903
5.0001773112521715,12.903225806451612
6.000212773502606,29.03225806451613
7.000248235753041,48.387096774193544
8.000283698003475,74.19354838709677
9.000319160253909,77.41935483870967
10.000354622504343,64.51612903225806
11.000390084754779,38.70967741935483
12.000425547005213,6.451612903225806
13.000461009255647,-12.903225806451612
14.000496471506082,-22.58064516129032
15.000531933756516,-32.25806451612903
16.00056739600695,-45.16129032258064
17.000602858257384,-58.06451612903226
18.000638320507818,-41.935483870967744
19.000673782758252,-32.25806451612903
20.000709245008686,-6.451612903225806
21.000744707259123,6.451612903225806
22.000780169509557,19.354838709677416
23.00081563175999,35.483870967741936
24.000851094010425,58.06451612903226
25.00088655626086,70.96774193548387
26.000922018511293,67.74193548387096
27.000957480761727,48.387096774193544
28.000992943012164,35.483870967741936
29.0010284052626,3.225806451612903
30.001063867513032,-9.677419354838708
31.001099329763466,-19.354838709677416
32.0011347920139,-32.25806451612903
33.00117025426434,-51.61290322580645
34.00120571651477,-61.29032258064516
35.001241178765206,-45.16129032258064
36.001276641015636,-22.58064516129032
37.00131210326607,-3.225806451612903
38.001347565516504,16.129032258064516
39.00138302776694,16.129032258064516
40.00141849001737,38.70967741935483
41.00145395226781,61.29032258064516
42.00148941451825,67.74193548387096
43.00152487676868,51.61290322580645
44.001560339019115,38.70967741935483
45.001595801269545,25.806451612903224
46.00163126351998,12.903225806451612
47.00166672577041,-16.129032258064516
48.00170218802085,-22.58064516129032
49.00173765027129,-35.483870967741936
50.00177311252172,-54.83870967741935
51.001808574772156,-51.61290322580645
52.001844037022586,-38.70967741935483
53.001879499273024,-9.677419354838708
54.001914961523454,3.225806451612903
55.00195042377389,19.354838709677416
56.00198588602433,25.806451612903224
57.00202134827476,51.61290322580645
58.0020568105252,67.74193548387096
59.00209227277563,80.64516129032258
60.002127735026065,61.29032258064516
61.002163197276495,38.70967741935483
62.00219865952693,6.451612903225806
63.00223412177736,-16.129032258064516
64.0022695840278,-19.354838709677416
65.00230504627824,-25.806451612903224
66.00234050852868,-41.935483870967744
67.0023759707791,-58.06451612903226
68.00241143302954,-41.935483870967744
69.00244689527997,-25.806451612903224
70.00248235753041,-6.451612903225806
71.00251781978083,9.677419354838708
72.00255328203127,19.354838709677416
73.00258874428171,38.70967741935483
74.00262420653215,58.06451612903226
75.00265966878258,70.96774193548387
76.00269513103301,67.74193548387096
77.00273059328345,48.387096774193544
78.00276605553388,22.58064516129032
79.00280151778432,9.677419354838708
80.00283698003474,-9.677419354838708
81.00287244228518,-19.354838709677416
82.00290790453562,-38.70967741935483
83.00294336678606,-48.387096774193544
84.0029788290365,-64.51612903225806
85.00301429128692,-35.483870967741936
86.00304975353735,-19.354838709677416
87.00308521578779,-6.451612903225806
88.00312067803823,16.129032258064516
89.00315614028867,25.806451612903224
90.00319160253909,35.483870967741936
91.00322706478953,67.74193548387096
92.00326252703996,70.96774193548387
93.0032979892904,61.29032258064516
94.00333345154083,35.483870967741936
95.00336891379126,12.903225806451612
96.0034043760417,0.0
97.00343983829214,-19.354838709677416
98.00347530054258,-22.58064516129032
99.003510762793,-38.70967741935483
100.00354622504344,-61.29032258064516
101.00358168729387,-58.06451612903226
102.00361714954431,-35.483870967741936
103.00365261179473,-16.129032258064516
104.00368807404517,6.451612903225806
105.00372353629561,22.58064516129032
106.00375899854605,32.25806451612903
107.00379446079648,51.61290322580645
108.00382992304691,70.96774193548387
109.00386538529735,77.41935483870967
110.00390084754778,61.29032258064516
111.00393630979822,41.935483870967744
112.00397177204866,9.677419354838708
113.00400723429908,-9.677419354838708
114.00404269654952,-25.806451612903224
115.00407815879996,-29.03225806451613
116.0041136210504,-48.387096774193544
117.00414908330082,-61.29032258064516
118.00418454555125,-48.387096774193544
119.00422000780169,-35.483870967741936
120.00425547005213,-12.903225806451612
121.00429093230257,9.677419354838708
122.00432639455299,19.354838709677416
123.00436185680343,29.03225806451613
124.00439731905387,54.83870967741935
125.0044327813043,77.41935483870967
126.00446824355473,64.51612903225806
127.00450370580516,45.16129032258064
128.0045391680556,29.03225806451613
129.00457463030602,6.451612903225806
130.00461009255648,-12.903225806451612
131.0046455548069,-22.58064516129032
132.00468101705735,-38.70967741935483
133.00471647930777,-51.61290322580645
134.0047519415582,-48.387096774193544
135.00478740380865,-35.483870967741936
136.00482286605907,-19.354838709677416
137.00485832830952,0.0
138.00489379055995,9.677419354838708
139.00492925281037,25.806451612903224
140.00496471506082,38.70967741935483
141.00500017731125,58.06451612903226
142.00503563956167,70.96774193548387
143.00507110181212,64.51612903225806
144.00510656406254,38.70967741935483
145.005142026313,19.354838709677416
146.00517748856342,-3.225806451612903
147.00521295081384,-12.903225806451612
148.0052484130643,-25.806451612903224
149.00528387531472,-38.70967741935483
150.00531933756517,-48.387096774193544
151.0053547998156,-48.387096774193544
152.00539026206602,-32.25806451612903
153.00542572431647,-12.903225806451612
154.0054611865669,3.225806451612903
155.00549664881734,19.354838709677416
156.00553211106777,29.03225806451613
157.0055675733182,48.387096774193544
158.00560303556864,70.96774193548387
159.00563849781906,80.64516129032258
160.0056739600695,54.83870967741935
161.00570942231994,32.25806451612903
162.00574488457036,3.225806451612903
163.0057803468208,-12.903225806451612
164.00581580907124,-29.03225806451613
165.00585127132166,-35.483870967741936
166.0058867335721,-48.387096774193544
167.00592219582254,-61.29032258064516
168.005957658073,-41.935483870967744
169.0059931203234,-25.806451612903224
170.00602858257383,-6.451612903225806
171.00606404482429,16.129032258064516
172.0060995070747,25.806451612903224
173.00613496932516,29.03225806451613
174.00617043157558,58.06451612903226
175.006205893826,77.41935483870967
176.00624135607646,77.41935483870967
177.00627681832688,48.387096774193544
178.00631228057733,29.03225806451613
179.00634774282776,6.451612903225806
180.00638320507818,-9.677419354838708
181.00641866732863,-22.58064516129032
182.00645412957905,-35.483870967741936
183.00648959182948,-54.83870967741935
184.00652505407993,-51.61290322580645
185.00656051633035,-41.935483870967744
186.0065959785808,-16.129032258064516
187.00663144083123,3.225806451612903
188.00666690308165,19.354838709677416
189.0067023653321,22.58064516129032
190.00673782758253,38.70967741935483
191.00677328983298,64.51612903225806
192.0068087520834,67.74193548387096
193.00684421433382,61.29032258064516
194.00687967658428,35.483870967741936
195.0069151388347,16.129032258064516
196.00695060108515,3.225806451612903
197.00698606333557,-22.58064516129032
198.007021525586,-25.806451612903224
199.00705698783645,-48.387096774193544
200.00709245008687,-61.29032258064516
201.00712791233732,-41.935483870967744
202.00716337458775,-32.25806451612903
203.00719883683817,-9.677419354838708
204.00723429908862,6.451612903225806
205.00726976133905,25.806451612903224
206.00730522358947,29.03225806451613
207.00734068583992,48.387096774193544
208.00737614809034,74.19354838709677
209.0074116103408,74.19354838709677
210.00744707259122,51.61290322580645
211.00748253484164,35.483870967741936
212.0075179970921,9.677419354838708
213.00755345934252,-9.677419354838708
214.00758892159297,-19.354838709677416
215.0076243838434,-29.03225806451613
216.00765984609382,-45.16129032258064
217.00769530834427,-54.83870967741935
218.0077307705947,-48.387096774193544
219.00776623284514,-29.03225806451613
220.00780169509557,-3.225806451612903
221.007837157346,12.903225806451612
222.00787261959644,29.03225806451613
223.00790808184686,35.483870967741936
224.00794354409732,51.61290322580645
225.00797900634774,70.96774193548387
226.00801446859816,58.06451612903226
227.0080499308486,38.70967741935483
228.00808539309904,22.58064516129032
229.00812085534946,3.225806451612903
230.0081563175999,-6.451612903225806
231.00819177985034,-19.354838709677416
232.0082272421008,-35.483870967741936
233.0082627043512,-45.16129032258064
234.00829816660163,-51.61290322580645
235.00833362885209,-38.70967741935483
236.0083690911025,-12.903225806451612
237.00840455335296,0.0
238.00844001560338,16.129032258064516
239.0084754778538,25.806451612903224
240.00851094010426,38.70967741935483
241.00854640235468,61.29032258064516
242.00858186460513,70.96774193548387
243.00861732685556,64.51612903225806
244.00865278910598,38.70967741935483
245.00868825135643,22.58064516129032
246.00872371360686,0.0
247.00875917585728,-16.129032258064516
248.00879463810773,-25.806451612903224
249.00883010035815,-45.16129032258064
250.0088655626086,-51.61290322580645
251.00890102485903,-48.387096774193544
252.00893648710945,-35.483870967741936
253.0089719493599,-9.677419354838708
254.00900741161033,0.0
255.00904287386078,25.806451612903224
256.0090783361112,38.70967741935483
257.0091137983616,45.16129032258064
258.00914926061205,67.74193548387096
259.0091847228625,70.96774193548387
260.00922018511295,54.83870967741935
261.0092556473634,29.03225806451613
262.0092911096138,0.0
263.0093265718642,-19.354838709677416
264.0093620341147,-22.58064516129032
265.0093974963651,-32.25806451612903
266.00943295861555,-45.16129032258064
267.00946842086597,-54.83870967741935
268.0095038831164,-41.935483870967744
269.0095393453669,-32.25806451612903
270.0095748076173,-6.451612903225806
271.0096102698677,9.677419354838708
272.00964573211814,12.903225806451612
273.00968119436857,29.03225806451613
274.00971665661905,61.29032258064516
275.00975211886947,77.41935483870967
276.0097875811199,77.41935483870967
277.0098230433703,54.83870967741935
278.00985850562074,32.25806451612903
279.00989396787116,3.225806451612903
280.00992943012164,-9.677419354838708
281.00996489237207,-25.806451612903224
282.0100003546225,-45.16129032258064
283.0100358168729,-58.06451612903226
284.01007127912334,-51.61290322580645
285.0101067413738,-29.03225806451613
286.01014220362424,-22.58064516129032
287.01017766587466,0.0
288.0102131281251,19.354838709677416
289.0102485903755,25.806451612903224
290.010284052626,35.483870967741936
291.0103195148764,70.96774193548387
292.01035497712684,67.74193548387096
293.01039043937726,58.06451612903226
294.0104259016277,35.483870967741936
295.01046136387816,12.903225806451612
296.0104968261286,0.0
297.010532288379,-22.58064516129032
298.01056775062943,-29.03225806451613
299.01060321287986,-41.935483870967744
300.01063867513034,-61.29032258064516
301.01067413738076,-45.16129032258064
302.0107095996312,-29.03225806451613
303.0107450618816,-9.677419354838708
304.01078052413203,0.0
305.0108159863825,25.806451612903224
306.01085144863293,35.483870967741936
307.01088691088336,54.83870967741935
308.0109223731338,74.19354838709677
309.0109578353842,67.74193548387096
310.0109932976347,54.83870967741935
311.0110287598851,29.03225806451613
312.01106422213553,9.677419354838708
313.01109968438595,-9.677419354838708
314.0111351466364,-22.58064516129032
315.01117060888686,-35.483870967741936
316.0112060711373,-48.387096774193544
317.0112415333877,-48.387096774193544
318.0112769956381,-38.70967741935483
319.01131245788855,-25.806451612903224
320.011347920139,3.225806451612903
321.01138338238945,12.903225806451612
322.0114188446399,19.354838709677416
323.0114543068903,35.483870967741936
324.0114897691407,61.29032258064516
325.01152523139115,80.64516129032258
326.0115606936416,58.06451612903226
327.01159615589205,35.483870967741936
328.0116316181425,29.03225806451613
329.0116670803929,-3.225806451612903
330.0117025426433,-19.354838709677416
331.0117380048938,-32.25806451612903
332.0117734671442,-38.70967741935483
333.01180892939465,-48.387096774193544
334.01184439164507,-54.83870967741935
335.0118798538955,-35.483870967741936
336.011915316146,-16.129032258064516
337.0119507783964,3.225806451612903
338.0119862406468,12.903225806451612
339.01202170289724,29.03225806451613
340.01205716514767,48.387096774193544
341.01209262739815,70.96774193548387
342.01212808964857,77.41935483870967
343.012163551899,54.83870967741935
344.0121990141494,38.70967741935483
345.01223447639984,19.354838709677416
346.0122699386503,-12.903225806451612
347.01230540090074,-25.806451612903224
348.01234086315117,-35.483870967741936
349.0123763254016,-48.387096774193544
350.012411787652,-54.83870967741935
351.0124472499025,-48.387096774193544
352.0124827121529,-25.806451612903224
353.01251817440334,0.0
354.01255363665376,16.129032258064516
355.0125890989042,19.354838709677416
356.01262456115467,35.483870967741936
357.0126600234051,45.16129032258064
358.0126954856555,74.19354838709677
359.01273094790594,67.74193548387096
360.01276641015636,45.16129032258064
361.01280187240684,29.03225806451613
362.01283733465726,-3.225806451612903
363.0128727969077,-22.58064516129032
364.0129082591581,-25.806451612903224
365.01294372140853,-32.25806451612903
366.01297918365896,-51.61290322580645
367.01301464590944,-61.29032258064516
368.01305010815986,-41.935483870967744
369.0130855704103,-19.354838709677416
370.0131210326607,3.225806451612903
371.01315649491113,19.354838709677416
372.0131919571616,29.03225806451613
373.01322741941203,38.70967741935483
374.01326288166246,61.29032258064516
375.0132983439129,74.19354838709677
376.0133338061633,64.51612903225806
377.0133692684138,38.70967741935483
378.0134047306642,25.806451612903224
379.01344019291463,3.225806451612903
380.01347565516505,-6.451612903225806
381.0135111174155,-16.129032258064516
382.01354657966596,-41.935483870967744
383.0135820419164,-51.61290322580645
384.0136175041668,-51.61290322580645
385.0136529664172,-35.483870967741936
386.01368842866765,-6.451612903225806
387.01372389091813,6.451612903225806
388.01375935316855,25.806451612903224
389.013794815419,29.03225806451613
390.0138302776694,38.70967741935483
391.0138657399198,70.96774193548387
392.0139012021703,74.19354838709677
393.0139366644207,61.29032258064516
394.01397212667115,32.25806451612903
395.0140075889216,12.903225806451612
396.014043051172,-3.225806451612903
397.0140785134225,-25.806451612903224
398.0141139756729,-35.483870967741936
399.0141494379233,-45.16129032258064
400.01418490017375,-61.29032258064516
401.01422036242417,-48.387096774193544
402.01425582467465,-25.806451612903224
403.0142912869251,-3.225806451612903
404.0143267491755,12.903225806451612
405.0143622114259,22.58064516129032
406.01439767367634,29.03225806451613
407.01443313592677,51.61290322580645
408.01446859817725,83.87096774193549
409.01450406042767,67.74193548387096
410.0145395226781,41.935483870967744
411.0145749849285,25.806451612903224
412.01461044717894,0.0
413.0146459094294,-9.677419354838708
414.01468137167984,-25.806451612903224
415.01471683393027,-35.483870967741936
416.0147522961807,-51.61290322580645
417.0147877584311,-58.06451612903226
418.0148232206816,-38.70967741935483
419.014858682932,-12.903225806451612
420.01489414518244,6.451612903225806
421.01492960743286,12.903225806451612
422.0149650696833,25.806451612903224
423.01500053193377,41.935483870967744
424.0150359941842,64.51612903225806
425.0150714564346,80.64516129032258
426.01510691868503,67.74193548387096
427.01514238093546,38.70967741935483
428.01517784318594,16.129032258064516
429.01521330543636,-9.677419354838708
430.0152487676868,-22.58064516129032
431.0152842299372,-25.806451612903224
432.01531969218763,-35.483870967741936
433.0153551544381,-51.61290322580645
434.01539061668853,-48.387096774193544
435.01542607893896,-35.483870967741936
436.0154615411894,-16.129032258064516
437.0154970034398,3.225806451612903
438.0155324656903,19.354838709677416
439.0155679279407,25.806451612903224
440.01560339019113,48.387096774193544
441.01563885244155,67.74193548387096
442.015674314692,80.64516129032258
443.01570977694246,54.83870967741935
444.0157452391929,38.70967741935483
445.0157807014433,12.903225806451612
446.0158161636937,-9.677419354838708
447.01585162594415,-25.806451612903224
448.01588708819463,-25.806451612903224
449.01592255044505,-51.61290322580645
450.0159580126955,-64.51612903225806
451.0159934749459,-48.387096774193544
452.0160289371963,-25.806451612903224
453.01606439944675,3.225806451612903
454.0160998616972,9.677419354838708
455.01613532394765,25.806451612903224
456.0161707861981,35.483870967741936
457.0162062484485,51.61290322580645
458.0162417106989,77.41935483870967
459.0162771729494,70.96774193548387
460.0163126351998,45.16129032258064
461.01634809745025,29.03225806451613
462.01638355970067,3.225806451612903
463.0164190219511,-19.354838709677416
464.0164544842016,-35.483870967741936
465.016489946452,-35.483870967741936
466.0165254087024,-51.61290322580645
467.01656087095284,-58.06451612903226
468.01659633320327,-35.483870967741936
469.01663179545375,-16.129032258064516
470.01666725770417,6.451612903225806
471.0167027199546,22.58064516129032
472.016738182205,32.25806451612903
473.01677364445544,48.387096774193544
474.0168091067059,61.29032258064516
475.01684456895634,74.19354838709677
476.01688003120677,64.51612903225806
477.0169154934572,32.25806451612903
478.0169509557076,16.129032258064516
479.0169864179581,-6.451612903225806
480.0170218802085,-19.354838709677416
481.01705734245894,-32.25806451612903
482.01709280470936,-41.935483870967744
483.0171282669598,-51.61290322580645
484.01716372921027,-51.61290322580645
485.0171991914607,-35.483870967741936
486.0172346537111,-9.677419354838708
487.01727011596154,3.225806451612903
488.01730557821196,19.354838709677416
489.01734104046244,25.806451612903224
490.01737650271286,54.83870967741935
491.0174119649633,70.96774193548387
492.0174474272137,67.74193548387096
493.01748288946413,48.387096774193544
494.01751835171456,29.03225806451613
495.01755381396504,9.677419354838708
496.01758927621546,-9.677419354838708
497.0176247384659,-16.129032258064516
498.0176602007163,-32.25806451612903
499.01769566296673,-48.387096774193544
500.0177311252172,-48.387096774193544
501.01776658746763,-38.70967741935483
502.01780204971806,-22.58064516129032
503.0178375119685,-3.225806451612903
504.0178729742189,9.677419354838708
505.0179084364694,32.25806451612903
506.0179438987198,38.70967741935483
507.01797936097023,54.83870967741935
508.01801482322065,77.41935483870967
509.0180502854711,61.29032258064516
510.01808574772156,45.16129032258064
511.018121209972,29.03225806451613
512.0181566722224,3.225806451612903
513.0181921344729,-22.58064516129032
514.0182275967232,-38.70967741935483
515.0182630589737,-45.16129032258064
516.0182985212241,-41.935483870967744
517.0183339834746,-51.61290322580645
518.018369445725,-35.483870967741936
519.0184049079754,-16.129032258064516
520.0184403702259,-6.451612903225806
521.0184758324763,19.354838709677416
522.0185112947267,19.354838709677416
523.0185467569772,38.70967741935483
524.0185822192276,67.74193548387096
525.0186176814781,67.74193548387096
526.0186531437284,61.29032258064516
527.0186886059789,35.483870967741936
528.0187240682294,16.129032258064516
529.0187595304798,-6.451612903225806
530.0187949927302,-16.129032258064516
531.0188304549806,-32.25806451612903
532.0188659172311,-45.16129032258064
533.0189013794816,-51.61290322580645
534.0189368417319,-41.935483870967744
535.0189723039824,-22.58064516129032
536.0190077662328,-3.225806451612903
537.0190432284833,3.225806451612903
538.0190786907337,19.354838709677416
539.0191141529841,32.25806451612903
540.0191496152346,48.387096774193544
541.019185077485,83.87096774193549
542.0192205397354,70.96774193548387
543.0192560019859,51.61290322580645
544.0192914642363,25.806451612903224
545.0193269264868,3.225806451612903
546.0193623887371,-9.677419354838708
547.0193978509876,-25.806451612903224
548.0194333132381,-32.25806451612903
549.0194687754885,-51.61290322580645
550.0195042377389,-58.06451612903226
551.0195396999893,-38.70967741935483
552.0195751622398,-29.03225806451613
553.0196106244903,3.225806451612903
554.0196460867406,12.903225806451612
555.0196815489911,16.129032258064516
556.0197170112415,32.25806451612903
557.019752473492,51.61290322580645
558.0197879357423,67.74193548387096
559.0198233979928,67.74193548387096
560.0198588602433,48.387096774193544
561.0198943224937,19.354838709677416
562.0199297847441,-3.225806451612903
563.0199652469945,-16.129032258064516
564.020000709245,-32.25806451612903
565.0200361714955,-41.935483870967744
566.0200716337458,-51.61290322580645
567.0201070959963,-45.16129032258064
568.0201425582467,-29.03225806451613
569.0201780204972,-9.677419354838708
570.0202134827476,9.677419354838708
571.020248944998,16.129032258064516
572.0202844072485,25.806451612903224
573.0203198694988,38.70967741935483
574.0203553317493,61.29032258064516
575.0203907939998,70.96774193548387
576.0204262562502,58.06451612903226
577.0204617185007,32.25806451612903
578.020497180751,19.354838709677416
579.0205326430015,3.225806451612903
580.020568105252,-22.58064516129032
581.0206035675023,-32.25806451612903
582.0206390297528,-38.70967741935483
583.0206744920032,-51.61290322580645
584.0207099542537,-54.83870967741935
585.0207454165042,-35.483870967741936
586.0207808787545,-12.903225806451612
587.020816341005,12.903225806451612
588.0208518032554,25.806451612903224
589.0208872655058,29.03225806451613
590.0209227277563,51.61290322580645
591.0209581900067,83.87096774193549
592.0209936522572,67.74193548387096
593.0210291145075,51.61290322580645
594.021064576758,25.806451612903224
595.0211000390085,9.677419354838708
596.0211355012589,-9.677419354838708
597.0211709635093,-25.806451612903224
598.0212064257597,-29.03225806451613
599.0212418880102,-54.83870967741935
600.0212773502607,-58.06451612903226
601.021312812511,-32.25806451612903
602.0213482747615,-22.58064516129032
603.0213837370119,-3.225806451612903
604.0214191992624,16.129032258064516
605.0214546615128,22.58064516129032
606.0214901237632,35.483870967741936
607.0215255860137,54.83870967741935
608.0215610482641,64.51612903225806
609.0215965105145,58.06451612903226
610.021631972765,38.70967741935483
611.0216674350154,25.806451612903224
612.0217028972659,-6.451612903225806
613.0217383595162,-12.903225806451612
614.0217738217667,-16.129032258064516
615.0218092840172,-35.483870967741936
616.0218447462676,-45.16129032258064
617.021880208518,-54.83870967741935
618.0219156707684,-35.483870967741936
619.0219511330189,-6.451612903225806
620.0219865952694,6.451612903225806
621.0220220575197,16.129032258064516
622.0220575197702,22.58064516129032
623.0220929820206,41.935483870967744
624.0221284442711,64.51612903225806
625.0221639065215,74.19354838709677
626.0221993687719,58.06451612903226
627.0222348310224,29.03225806451613
628.0222702932728,3.225806451612903
629.0223057555232,-9.677419354838708
630.0223412177737,-19.354838709677416
631.0223766800241,-29.03225806451613
632.0224121422746,-45.16129032258064
633.0224476045249,-54.83870967741935
634.0224830667754,-38.70967741935483
635.0225185290259,-29.03225806451613
636.0225539912763,-6.451612903225806
637.0225894535267,16.129032258064516
638.0226249157771,25.806451612903224
639.0226603780276,32.25806451612903
640.022695840278,45.16129032258064
641.0227313025284,70.96774193548387
642.0227667647789,64.51612903225806
643.0228022270293,54.83870967741935
644.0228376892798,22.58064516129032
645.0228731515301,6.451612903225806
646.0229086137806,-9.677419354838708
647.0229440760311,-19.354838709677416
648.0229795382814,-25.806451612903224
649.0230150005319,-41.935483870967744
650.0230504627823,-48.387096774193544
651.0230859250328,-38.70967741935483
652.0231213872833,-29.03225806451613
653.0231568495336,0.0
654.0231923117841,12.903225806451612
655.0232277740345,19.354838709677416
656.023263236285,41.935483870967744
657.0232986985354,58.06451612903226
658.0233341607858,70.96774193548387
659.0233696230363,61.29032258064516
660.0234050852866,38.70967741935483
661.0234405475371,22.58064516129032
662.0234760097876,3.225806451612903
663.023511472038,-19.354838709677416
664.0235469342884,-29.03225806451613
665.0235823965388,-45.16129032258064
666.0236178587893,-48.387096774193544
667.0236533210398,-58.06451612903226
668.0236887832901,-32.25806451612903
669.0237242455406,-9.677419354838708
670.023759707791,3.225806451612903
671.0237951700415,19.354838709677416
672.023830632292,25.806451612903224
673.0238660945423,45.16129032258064
674.0239015567928,67.74193548387096
675.0239370190432,70.96774193548387
676.0239724812936,58.06451612903226
677.0240079435441,35.483870967741936
678.0240434057945,12.903225806451612
679.024078868045,-9.677419354838708
680.0241143302953,-12.903225806451612
681.0241497925458,-32.25806451612903
682.0241852547963,-51.61290322580645
683.0242207170467,-58.06451612903226
684.0242561792971,-45.16129032258064
685.0242916415475,-25.806451612903224
686.024327103798,-3.225806451612903
687.0243625660485,9.677419354838708
688.0243980282988,22.58064516129032
689.0244334905493,32.25806451612903
690.0244689527997,58.06451612903226
691.0245044150502,80.64516129032258
692.0245398773006,70.96774193548387
693.024575339551,54.83870967741935
694.0246108018015,32.25806451612903
695.0246462640519,12.903225806451612
696.0246817263023,-16.129032258064516
697.0247171885528,-25.806451612903224
698.0247526508032,-32.25806451612903
699.0247881130537,-48.387096774193544
700.024823575304,-51.61290322580645
701.0248590375545,-48.387096774193544
702.024894499805,-25.806451612903224
703.0249299620554,3.225806451612903
704.0249654243058,9.677419354838708
705.0250008865562,19.354838709677416
706.0250363488067,38.70967741935483
707.0250718110572,61.29032258064516
708.0251072733075,70.96774193548387
709.025142735558,64.51612903225806
710.0251781978084,45.16129032258064
711.0252136600589,22.58064516129032
712.0252491223093,3.225806451612903
713.0252845845597,-9.677419354838708
714.0253200468102,-32.25806451612903
715.0253555090605,-38.70967741935483
716.025390971311,-51.61290322580645
717.0254264335615,-45.16129032258064
718.0254618958119,-29.03225806451613
719.0254973580624,-12.903225806451612
720.0255328203127,3.225806451612903
721.0255682825632,12.903225806451612
722.0256037448137,29.03225806451613
723.025639207064,38.70967741935483
724.0256746693145,64.51612903225806
725.0257101315649,64.51612903225806
726.0257455938154,61.29032258064516
727.0257810560657,25.806451612903224
728.0258165183162,3.225806451612903
729.0258519805667,-9.677419354838708
730.0258874428171,-12.903225806451612
731.0259229050675,-16.129032258064516
732.0259583673179,-51.61290322580645
733.0259938295684,-58.06451612903226
734.0260292918189,-45.16129032258064
735.0260647540692,-25.806451612903224
736.0261002163197,-3.225806451612903
737.0261356785701,9.677419354838708
738.0261711408206,25.806451612903224
739.026206603071,29.03225806451613
740.0262420653214,48.387096774193544
741.0262775275719,74.19354838709677
742.0263129898223,67.74193548387096
743.0263484520727,38.70967741935483
744.0263839143232,16.129032258064516
745.0264193765736,0.0
746.0264548388241,-22.58064516129032
747.0264903010744,-25.806451612903224
748.0265257633249,-25.806451612903224
749.0265612255754,-41.935483870967744
750.0265966878258,-54.83870967741935
751.0266321500762,-38.70967741935483
752.0266676123266,-19.354838709677416
753.0267030745771,3.225806451612903
754.0267385368276,16.129032258064516
755.0267739990779,25.806451612903224
756.0268094613284,35.483870967741936
757.0268449235788,54.83870967741935
758.0268803858293,70.96774193548387
759.0269158480797,61.29032258064516
760.0269513103301,38.70967741935483
761.0269867725806,22.58064516129032
762.027022234831,-6.451612903225806
763.0270576970814,-9.677419354838708
764.0270931593319,-25.806451612903224
765.0271286215823,-35.483870967741936
766.0271640838328,-51.61290322580645
767.0271995460831,-48.387096774193544
768.0272350083336,-45.16129032258064
769.0272704705841,-12.903225806451612
770.0273059328345,6.451612903225806
771.0273413950849,22.58064516129032
772.0273768573353,38.70967741935483
773.0274123195858,64.51612903225806
774.0274477818363,77.41935483870967
775.0274832440866,77.41935483870967
776.0275187063371,54.83870967741935
777.0275541685875,25.806451612903224
778.027589630838,0.0
779.0276250930884,-25.806451612903224
780.0276605553388,-25.806451612903224
781.0276960175893,-41.935483870967744
782.0277314798396,-64.51612903225806
783.0277669420901,-54.83870967741935
784.0278024043406,-32.25806451612903
785.027837866591,-12.903225806451612
786.0278733288415,0.0
787.0279087910918,16.129032258064516
788.0279442533423,22.58064516129032
789.0279797155928,35.483870967741936
790.0280151778431,67.74193548387096
791.0280506400936,80.64516129032258
792.028086102344,70.96774193548387
793.0281215645945,51.61290322580645
794.028157026845,25.806451612903224
795.0281924890953,3.225806451612903
796.0282279513458,-12.903225806451612
797.0282634135962,-29.03225806451613
798.0282988758466,-41.935483870967744
799.0283343380971,-67.74193548387096
800.0283698003475,-64.51612903225806
801.028405262598,-45.16129032258064
802.0284407248483,-16.129032258064516
803.0284761870988,-3.225806451612903
804.0285116493493,16.129032258064516
805.0285471115997,25.806451612903224
806.0285825738501,51.61290322580645
807.0286180361005,70.96774193548387
808.028653498351,77.41935483870967
809.0286889606015,64.51612903225806
810.0287244228518,38.70967741935483
811.0287598851023,19.354838709677416
812.0287953473527,-12.903225806451612
813.0288308096032,-19.354838709677416
814.0288662718535,-32.25806451612903
815.028901734104,-51.61290322580645
816.0289371963545,-64.51612903225806
817.0289726586049,-58.06451612903226
818.0290081208553,-32.25806451612903
819.0290435831057,-9.677419354838708
820.0290790453562,9.677419354838708
821.0291145076067,25.806451612903224
822.029149969857,35.483870967741936
823.0291854321075,54.83870967741935
824.0292208943579,77.41935483870967
825.0292563566084,77.41935483870967
826.0292918188588,54.83870967741935
827.0293272811092,32.25806451612903
828.0293627433597,3.225806451612903
829.02939820561,-9.677419354838708
830.0294336678605,-16.129032258064516
831.029469130111,-32.25806451612903
832.0295045923614,-64.51612903225806
833.0295400546119,-67.74193548387096
834.0295755168622,-58.06451612903226
835.0296109791127,-25.806451612903224
836.0296464413632,0.0
837.0296819036136,19.354838709677416
838.029717365864,35.483870967741936
839.0297528281144,41.935483870967744
840.0297882903649,77.41935483870967
841.0298237526154,90.32258064516128
842.0298592148657,64.51612903225806
843.0298946771162,48.387096774193544
844.0299301393666,19.354838709677416
845.029965601617,3.225806451612903
846.0300010638675,-19.354838709677416
847.0300365261179,-29.03225806451613
848.0300719883684,-51.61290322580645
849.0301074506187,-64.51612903225806
850.0301429128692,-58.06451612903226
851.0301783751197,-32.25806451612903
852.0302138373701,-16.129032258064516
853.0302492996206,0.0
854.0302847618709,22.58064516129032
855.0303202241214,19.354838709677416
856.0303556863719,58.06451612903226
857.0303911486222,74.19354838709677
858.0304266108727,77.41935483870967
859.0304620731231,67.74193548387096
860.0304975353736,35.483870967741936
861.030532997624,19.354838709677416
862.0305684598744,-12.903225806451612
863.0306039221249,-25.806451612903224
864.0306393843753,-38.70967741935483
865.0306748466257,-54.83870967741935
866.0307103088762,-61.29032258064516
867.0307457711266,-58.06451612903226
868.0307812333771,-22.58064516129032
869.0308166956274,-9.677419354838708
870.0308521578779,12.903225806451612
871.0308876201284,22.58064516129032
872.0309230823788,29.03225806451613
873.0309585446292,58.06451612903226
874.0309940068796,77.41935483870967
875.0310294691301,70.96774193548387
876.0310649313806,58.06451612903226
877.0311003936309,38.70967741935483
878.0311358558814,12.903225806451612
879.0311713181318,-9.677419354838708
880.0312067803823,-25.806451612903224
881.0312422426327,-38.70967741935483
882.0312777048831,-64.51612903225806
883.0313131671336,-64.51612903225806
884.031348629384,-41.935483870967744
885.0313840916344,-22.58064516129032
886.0314195538849,0.0
887.0314550161353,16.129032258064516
888.0314904783858,25.806451612903224
889.0315259406361,41.935483870967744
890.0315614028866,67.74193548387096
891.0315968651371,80.64516129032258
892.0316323273875,67.74193548387096
893.0316677896379,45.16129032258064
894.0317032518883,22.58064516129032
895.0317387141388,3.225806451612903
896.0317741763893,-19.354838709677416
897.0318096386396,-29.03225806451613
898.0318451008901,-48.387096774193544
899.0318805631405,-61.29032258064516
900.031916025391,-61.29032258064516
901.0319514876413,-38.70967741935483
902.0319869498918,-19.354838709677416
903.0320224121423,9.677419354838708
904.0320578743926,19.354838709677416
905.0320933366431,25.806451612903224
906.0321287988935,54.83870967741935
907.032164261144,77.41935483870967
908.0321997233945,80.64516129032258
909.0322351856448,61.29032258064516
910.0322706478953,38.70967741935483
911.0323061101457,9.677419354838708
912.0323415723961,-16.129032258064516
913.0323770346466,-22.58064516129032
914.032412496897,-29.03225806451613
915.0324479591475,-51.61290322580645
916.0324834213978,-58.06451612903226
917.0325188836483,-61.29032258064516
918.0325543458988,-29.03225806451613
919.0325898081492,-9.677419354838708
920.0326252703996,16.129032258064516
921.03266073265,22.58064516129032
922.0326961949005,38.70967741935483
923.032731657151,64.51612903225806
924.0327671194013,77.41935483870967
925.0328025816518,67.74193548387096
926.0328380439022,58.06451612903226
927.0328735061527,32.25806451612903
928.0329089684031,6.451612903225806
929.0329444306535,-16.129032258064516
930.032979892904,-29.03225806451613
931.0330153551544,-38.70967741935483
932.0330508174048,-64.51612903225806
933.0330862796553,-67.74193548387096
934.0331217419057,-54.83870967741935
935.0331572041562,-22.58064516129032
936.0331926664065,-3.225806451612903
937.033228128657,16.129032258064516
938.0332635909075,25.806451612903224
939.0332990531579,41.935483870967744
940.0333345154083,77.41935483870967
941.0333699776587,80.64516129032258
942.0334054399092,67.74193548387096
943.0334409021597,45.16129032258064
944.03347636441,16.129032258064516
945.0335118266605,-16.129032258064516
946.0335472889109,-25.806451612903224
947.0335827511614,-32.25806451612903
948.0336182134118,-48.387096774193544
949.0336536756622,-67.74193548387096
950.0336891379127,-61.29032258064516
951.033724600163,-29.03225806451613
952.0337600624135,-16.129032258064516
953.033795524664,12.903225806451612
954.0338309869144,16.129032258064516
955.0338664491649,32.25806451612903
956.0339019114152,54.83870967741935
957.0339373736657,77.41935483870967
958.0339728359162,80.64516129032258
959.0340082981666,64.51612903225806
960.034043760417,32.25806451612903
961.0340792226674,16.129032258064516
962.0341146849179,-6.451612903225806
963.0341501471684,-22.58064516129032
964.0341856094187,-35.483870967741936
965.0342210716692,-58.06451612903226
966.0342565339196,-61.29032258064516
967.03429199617,-54.83870967741935
968.0343274584205,-38.70967741935483
969.0343629206709,-12.903225806451612
970.0343983829214,9.677419354838708
971.0344338451717,22.58064516129032
972.0344693074222,38.70967741935483
973.0345047696727,70.96774193548387
974.0345402319231,80.64516129032258
975.0345756941736,87.09677419354838
976.0346111564239,58.06451612903226
977.0346466186744,29.03225806451613
978.0346820809249,3.225806451612903
979.0347175431752,-16.129032258064516
980.0347530054257,-35.483870967741936
981.0347884676761,-38.70967741935483
982.0348239299266,-67.74193548387096
983.0348593921769,-64.51612903225806
984.0348948544274,-54.83870967741935
985.0349303166779,-9.677419354838708
986.0349657789283,-3.225806451612903
987.0350012411787,16.129032258064516
988.0350367034291,35.483870967741936
989.0350721656796,45.16129032258064
990.0351076279301,70.96774193548387
991.0351430901804,83.87096774193549
992.0351785524309,67.74193548387096
993.0352140146813,41.935483870967744
994.0352494769318,19.354838709677416
995.0352849391822,-6.451612903225806
996.0353204014326,-19.354838709677416
997.0353558636831,-38.70967741935483
998.0353913259335,-51.61290322580645
999.0354267881839,-64.51612903225806
1000.0354622504344,-61.29032258064516
1001.0354977126848,-35.483870967741936
1002.0355331749353,-19.354838709677416
1003.0355686371856,12.903225806451612
1004.0356040994361,22.58064516129032
1005.0356395616866,38.70967741935483
1006.035675023937,64.51612903225806
1007.0357104861874,80.64516129032258
1008.0357459484378,83.87096774193549
1009.0357814106883,64.51612903225806
1010.0358168729388,41.935483870967744
1011.0358523351891,9.677419354838708
1012.0358877974396,-19.354838709677416
1013.03592325969,-32.25806451612903
1014.0359587219405,-41.935483870967744
1015.0359941841909,-58.06451612903226
1016.0360296464413,-64.51612903225806
1017.0360651086918,-51.61290322580645
1018.0361005709422,-29.03225806451613
1019.0361360331926,0.0
1020.0361714954431,12.903225806451612
1021.0362069576935,29.03225806451613
1022.036242419944,35.483870967741936
1023.0362778821943,64.51612903225806
1024.0363133444448,83.87096774193549
1025.0363488066953,70.96774193548387
1026.0363842689458,51.61290322580645
1027.036419731196,22.58064516129032
1028.0364551934465,0.0
1029.036490655697,-16.129032258064516
1030.0365261179475,-32.25806451612903
1031.036561580198,-48.387096774193544
1032.0365970424482,-64.51612903225806
1033.0366325046987,-61.29032258064516
1034.0366679669492,-45.16129032258064
1035.0367034291996,-16.129032258064516
1036.03673889145,6.451612903225806
1037.0367743537004,19.354838709677416
1038.0368098159508,29.03225806451613
1039.0368452782013,45.16129032258064
1040.0368807404518,64.51612903225806
1041.0369162027023,87.09677419354838
1042.0369516649525,64.51612903225806
1043.036987127203,38.70967741935483
1044.0370225894535,16.129032258064516
1045.037058051704,-3.225806451612903
1046.0370935139545,-16.129032258064516
1047.0371289762047,-32.25806451612903
1048.0371644384552,-48.387096774193544
1049.0371999007057,-67.74193548387096
1050.0372353629562,-54.83870967741935
1051.0372708252066,-41.935483870967744
1052.0373062874569,-16.129032258064516
1053.0373417497074,6.451612903225806
1054.0373772119578,22.58064516129032
1055.0374126742083,35.483870967741936
1056.0374481364588,64.51612903225806
1057.037483598709,90.32258064516128
1058.0375190609595,87.09677419354838
1059.03755452321,54.83870967741935
1060.0375899854605,38.70967741935483
1061.037625447711,9.677419354838708
1062.0376609099612,-9.677419354838708
1063.0376963722117,-29.03225806451613
1064.0377318344622,-41.935483870967744
1065.0377672967127,-67.74193548387096
1066.0378027589632,-77.41935483870967
1067.0378382212134,-58.06451612903226
1068.0378736834639,-22.58064516129032
1069.0379091457144,0.0
1070.0379446079648,25.806451612903224
1071.0379800702153,32.25806451612903
1072.0380155324656,45.16129032258064
1073.038050994716,74.19354838709677
1074.0380864569665,87.09677419354838
1075.038121919217,77.41935483870967
1076.0381573814675,54.83870967741935
1077.0381928437178,29.03225806451613
1078.0382283059682,0.0
1079.0382637682187,-22.58064516129032
1080.0382992304692,-25.806451612903224
1081.0383346927197,-45.16129032258064
1082.03837015497,-70.96774193548387
1083.0384056172204,-67.74193548387096
1084.0384410794709,-54.83870967741935
1085.0384765417214,-22.58064516129032
1086.0385120039718,0.0
1087.038547466222,22.58064516129032
1088.0385829284726,38.70967741935483
1089.038618390723,51.61290322580645
1090.0386538529735,77.41935483870967
1091.038689315224,80.64516129032258
1092.0387247774743,61.29032258064516
1093.0387602397248,35.483870967741936
1094.0387957019752,16.129032258064516
1095.0388311642257,-6.451612903225806
1096.0388666264762,-19.354838709677416
1097.0389020887264,-38.70967741935483
1098.038937550977,-45.16129032258064
1099.0389730132274,-61.29032258064516
1100.0390084754779,-51.61290322580645
1101.0390439377284,-32.25806451612903
1102.0390793999786,-9.677419354838708
1103.039114862229,3.225806451612903
1104.0391503244796,19.354838709677416
1105.03918578673,38.70967741935483
1106.0392212489805,58.06451612903226
1107.0392567112308,80.64516129032258
1108.0392921734813,83.87096774193549
1109.0393276357318,58.06451612903226
1110.0393630979822,25.806451612903224
1111.0393985602325,3.225806451612903
1112.039434022483,-19.354838709677416
1113.0394694847334,-22.58064516129032
1114.039504946984,-38.70967741935483
1115.0395404092344,-64.51612903225806
1116.0395758714847,-64.51612903225806
1117.0396113337351,-35.483870967741936
1118.0396467959856,-19.354838709677416
1119.039682258236,-3.225806451612903
1120.0397177204866,29.03225806451613
1121.0397531827368,32.25806451612903
1122.0397886449873,38.70967741935483
1123.0398241072378,77.41935483870967
1124.0398595694883,83.87096774193549
1125.0398950317388,64.51612903225806
1126.039930493989,48.387096774193544
1127.0399659562395,19.354838709677416
1128.04000141849,0.0
1129.0400368807404,-19.354838709677416
1130.040072342991,-25.806451612903224
1131.0401078052412,-35.483870967741936
1132.0401432674917,-58.06451612903226
1133.0401787297421,-70.96774193548387
1134.0402141919926,-51.61290322580645
1135.040249654243,-32.25806451612903
1136.0402851164934,0.0
1137.0403205787438,16.129032258064516
1138.0403560409943,35.483870967741936
1139.0403915032448,51.61290322580645
1140.0404269654953,80.64516129032258
1141.0404624277455,90.32258064516128
1142.040497889996,70.96774193548387
1143.0405333522465,48.387096774193544
1144.040568814497,12.903225806451612
1145.0406042767474,-6.451612903225806
1146.0406397389977,-22.58064516129032
1147.0406752012482,-35.483870967741936
1148.0407106634987,-48.387096774193544
1149.0407461257491,-67.74193548387096
1150.0407815879996,-67.74193548387096
1151.0408170502499,-41.935483870967744
1152.0408525125004,-19.354838709677416
1153.0408879747508,6.451612903225806
1154.0409234370013,25.806451612903224
1155.0409588992518,35.483870967741936
1156.040994361502,61.29032258064516
1157.0410298237525,87.09677419354838
1158.041065286003,80.64516129032258
1159.0411007482535,61.29032258064516
1160.041136210504,25.806451612903224
1161.0411716727542,0.0
1162.0412071350047,-19.354838709677416
1163.0412425972552,-19.354838709677416
1164.0412780595057,-29.03225806451613
1165.0413135217561,-51.61290322580645
1166.0413489840064,-48.387096774193544
1167.0413844462569,-48.387096774193544
1168.0414199085074,-22.58064516129032
1169.0414553707578,-3.225806451612903
1170.0414908330083,16.129032258064516
1171.0415262952586,32.25806451612903
1172.041561757509,38.70967741935483
1173.0415972197595,54.83870967741935
1174.04163268201,74.19354838709677
1175.0416681442605,64.51612903225806
1176.0417036065107,48.387096774193544
1177.0417390687612,16.129032258064516
1178.0417745310117,-3.225806451612903
1179.0418099932622,-22.58064516129032
1180.0418454555127,-25.806451612903224
1181.041880917763,-32.25806451612903
1182.0419163800134,-58.06451612903226
1183.0419518422639,-61.29032258064516
1184.0419873045144,-48.387096774193544
1185.0420227667648,-25.806451612903224
1186.042058229015,0.0
1187.0420936912656,16.129032258064516
1188.042129153516,19.354838709677416
1189.0421646157665,48.387096774193544
1190.042200078017,64.51612903225806
1191.0422355402673,77.41935483870967
1192.0422710025177,64.51612903225806
1193.0423064647682,41.935483870967744
1194.0423419270187,12.903225806451612
1195.0423773892692,-3.225806451612903
1196.0424128515194,0.0
1197.04244831377,-22.58064516129032
1198.0424837760204,-45.16129032258064
1199.0425192382709,-74.19354838709677
1200.0425547005214,-58.06451612903226
1201.0425901627716,-38.70967741935483
1202.042625625022,-9.677419354838708
1203.0426610872726,12.903225806451612
1204.042696549523,32.25806451612903
1205.0427320117735,54.83870967741935
1206.0427674740238,67.74193548387096
1207.0428029362743,90.32258064516128
1208.0428383985247,93.54838709677418
1209.0428738607752,58.06451612903226
1210.0429093230257,32.25806451612903
1211.042944785276,3.225806451612903
1212.0429802475264,-29.03225806451613
1213.043015709777,-32.25806451612903
1214.0430511720274,-45.16129032258064
1215.0430866342779,-64.51612903225806
1216.0431220965281,-67.74193548387096
1217.0431575587786,-64.51612903225806
1218.043193021029,-38.70967741935483
1219.0432284832796,-25.806451612903224
1220.04326394553,0.0
1221.0432994077803,22.58064516129032
1222.0433348700308,38.70967741935483
1223.0433703322813,77.41935483870967
1224.0434057945317,96.77419354838709
1225.0434412567822,80.64516129032258
1226.0434767190325,54.83870967741935
1227.043512181283,19.354838709677416
1228.0435476435334,0.0
1229.043583105784,-12.903225806451612
1230.0436185680344,-25.806451612903224
1231.0436540302846,-32.25806451612903
1232.0436894925351,-54.83870967741935
1233.0437249547856,-51.61290322580645
1234.043760417036,-38.70967741935483
1235.0437958792866,-16.129032258064516
1236.0438313415368,3.225806451612903
1237.0438668037873,9.677419354838708
1238.0439022660378,19.354838709677416
1239.0439377282883,41.935483870967744
1240.0439731905387,67.74193548387096
1241.044008652789,80.64516129032258
1242.0440441150395,61.29032258064516
1243.04407957729,38.70967741935483
1244.0441150395404,6.451612903225806
1245.044150501791,-19.354838709677416
1246.0441859640412,-25.806451612903224
1247.0442214262916,-48.387096774193544
1248.0442568885421,-64.51612903225806
1249.0442923507926,-77.41935483870967
1250.044327813043,-54.83870967741935
1251.0443632752933,-35.483870967741936
1252.0443987375438,0.0
1253.0444341997943,25.806451612903224
1254.0444696620448,38.70967741935483
1255.0445051242953,61.29032258064516
1256.0445405865455,80.64516129032258
1257.044576048796,99.99999999999999
1258.0446115110465,90.32258064516128
1259.044646973297,61.29032258064516
1260.0446824355474,35.483870967741936
1261.0447178977977,3.225806451612903
1262.0447533600482,-22.58064516129032
1263.0447888222986,-32.25806451612903
1264.0448242845491,-45.16129032258064
1265.0448597467996,-67.74193548387096
1266.0448952090499,-74.19354838709677
1267.0449306713003,-58.06451612903226
1268.0449661335508,-35.483870967741936
1269.0450015958013,-6.451612903225806
1270.0450370580518,12.903225806451612
1271.045072520302,22.58064516129032
1272.0451079825525,41.935483870967744
1273.045143444803,61.29032258064516
1274.0451789070535,74.19354838709677
1275.045214369304,70.96774193548387
1276.0452498315542,61.29032258064516
1277.0452852938047,25.806451612903224
1278.0453207560552,3.225806451612903
1279.0453562183056,-12.903225806451612
1280.045391680556,-16.129032258064516
1281.0454271428064,-38.70967741935483
1282.0454626050569,-64.51612903225806
1283.0454980673073,-58.06451612903226
1284.0455335295578,-35.483870967741936
1285.045568991808,-6.451612903225806
1286.0456044540585,16.129032258064516
1287.045639916309,25.806451612903224
1288.0456753785595,41.935483870967744
1289.04571084081,48.387096774193544
1290.0457463030602,74.19354838709677
1291.0457817653107,80.64516129032258
1292.0458172275612,48.387096774193544
1293.0458526898117,29.03225806451613
1294.0458881520622,3.225806451612903
1295.0459236143124,-16.129032258064516
1296.045959076563,-19.354838709677416
1297.0459945388134,-35.483870967741936
1298.0460300010639,-48.387096774193544
1299.0460654633143,-64.51612903225806
1300.0461009255646,-54.83870967741935
1301.046136387815,-22.58064516129032
1302.0461718500655,-3.225806451612903
1303.046207312316,3.225806451612903
1304.0462427745665,6.451612903225806
1305.0462782368168,32.25806451612903
1306.0463136990672,54.83870967741935
1307.0463491613177,77.41935483870967
1308.0463846235682,80.64516129032258
1309.0464200858187,61.29032258064516
1310.046455548069,41.935483870967744
1311.0464910103194,16.129032258064516
1312.04652647257,-12.903225806451612
1313.0465619348204,-22.58064516129032
1314.0465973970709,-38.70967741935483
1315.046632859321,-61.29032258064516
1316.0466683215716,-67.74193548387096
1317.046703783822,-51.61290322580645
1318.0467392460725,-25.806451612903224
1319.046774708323,3.225806451612903
1320.0468101705733,25.806451612903224
1321.0468456328238,35.483870967741936
1322.0468810950742,38.70967741935483
1323.0469165573247,67.74193548387096
1324.0469520195752,87.09677419354838
1325.0469874818255,70.96774193548387
1326.047022944076,45.16129032258064
1327.0470584063264,12.903225806451612
1328.047093868577,0.0
1329.0471293308274,-25.806451612903224
1330.0471647930776,-32.25806451612903
1331.047200255328,-48.387096774193544
1332.0472357175786,-77.41935483870967
1333.047271179829,-61.29032258064516
1334.0473066420795,-38.70967741935483
1335.0473421043298,-12.903225806451612
1336.0473775665803,9.677419354838708
1337.0474130288308,22.58064516129032
1338.0474484910812,29.03225806451613
1339.0474839533317,58.06451612903226
1340.047519415582,70.96774193548387
1341.0475548778325,77.41935483870967
1342.047590340083,61.29032258064516
1343.0476258023334,32.25806451612903
1344.047661264584,9.677419354838708
1345.0476967268341,-19.354838709677416
1346.0477321890846,-22.58064516129032
1347.047767651335,-32.25806451612903
1348.0478031135856,-58.06451612903226
1349.047838575836,-64.51612903225806
1350.0478740380863,-54.83870967741935
1351.0479095003368,-32.25806451612903
1352.0479449625873,-9.677419354838708
1353.0479804248378,6.451612903225806
1354.0480158870882,16.129032258064516
1355.0480513493385,35.483870967741936
1356.048086811589,61.29032258064516
1357.0481222738395,87.09677419354838
1358.04815773609,77.41935483870967
1359.0481931983404,58.06451612903226
1360.0482286605907,32.25806451612903
1361.0482641228411,9.677419354838708
1362.0482995850916,-6.451612903225806
1363.048335047342,-25.806451612903224
1364.0483705095926,-35.483870967741936
1365.0484059718428,-58.06451612903226
1366.0484414340933,-64.51612903225806
1367.0484768963438,-48.387096774193544
1368.0485123585943,-25.806451612903224
1369.0485478208448,0.0
1370.048583283095,12.903225806451612
1371.0486187453455,35.483870967741936
1372.048654207596,45.16129032258064
1373.0486896698465,64.51612903225806
1374.048725132097,77.41935483870967
1375.0487605943472,67.74193548387096
1376.0487960565977,48.387096774193544
1377.0488315188481,16.129032258064516
1378.0488669810986,-9.677419354838708
1379.048902443349,-25.806451612903224
1380.0489379055994,-25.806451612903224
1381.0489733678498,-48.387096774193544
1382.0490088301003,-61.29032258064516
1383.0490442923508,-64.51612903225806
1384.0490797546013,-48.387096774193544
1385.0491152168515,-12.903225806451612
1386.049150679102,6.451612903225806
1387.0491861413525,25.806451612903224
1388.049221603603,29.03225806451613
1389.0492570658535,51.61290322580645
1390.0492925281037,67.74193548387096
1391.0493279903542,83.87096774193549
1392.0493634526047,58.06451612903226
1393.0493989148551,38.70967741935483
1394.0494343771056,16.129032258064516
1395.0494698393559,0.0
1396.0495053016064,-16.129032258064516
1397.0495407638568,-35.483870967741936
1398.0495762261073,-58.06451612903226
1399.0496116883578,-74.19354838709677
1400.049647150608,-58.06451612903226
1401.0496826128585,-35.483870967741936
1402.049718075109,-12.903225806451612
1403.0497535373595,12.903225806451612
1404.04978899961,19.354838709677416
1405.0498244618602,38.70967741935483
1406.0498599241107,70.96774193548387
1407.0498953863612,93.54838709677418
1408.0499308486117,77.41935483870967
1409.0499663108621,48.387096774193544
1410.0500017731124,19.354838709677416
1411.0500372353629,-3.225806451612903
1412.0500726976134,-19.354838709677416
1413.0501081598638,-29.03225806451613
1414.0501436221143,-45.16129032258064
1415.0501790843646,-61.29032258064516
1416.050214546615,-58.06451612903226
1417.0502500088655,-35.483870967741936
1418.050285471116,-9.677419354838708
1419.0503209333665,6.451612903225806
1420.0503563956167,22.58064516129032
1421.0503918578672,38.70967741935483
1422.0504273201177,51.61290322580645
1423.0504627823682,74.19354838709677
1424.0504982446187,74.19354838709677
1425.050533706869,58.06451612903226
1426.0505691691194,38.70967741935483
1427.0506046313699,9.677419354838708
1428.0506400936204,-12.903225806451612
1429.0506755558708,-25.806451612903224
1430.050711018121,-35.483870967741936
1431.0507464803716,-48.387096774193544
1432.050781942622,-67.74193548387096
1433.0508174048725,-48.387096774193544
1434.050852867123,-48.387096774193544
1435.0508883293733,-19.354838709677416
1436.0509237916237,16.129032258064516
1437.0509592538742,29.03225806451613
1438.0509947161247,32.25806451612903
1439.0510301783752,54.83870967741935
1440.0510656406254,77.41935483870967
1441.051101102876,77.41935483870967
1442.0511365651264,51.61290322580645
1443.0511720273769,35.483870967741936
1444.0512074896274,3.225806451612903
1445.0512429518776,-12.903225806451612
1446.051278414128,-19.354838709677416
1447.0513138763786,-35.483870967741936
1448.051349338629,-58.06451612903226
1449.0513848008795,-61.29032258064516
1450.0514202631298,-41.935483870967744
1451.0514557253803,-22.58064516129032
1452.0514911876307,0.0
1453.0515266498812,9.677419354838708
1454.0515621121315,19.354838709677416
1455.051597574382,38.70967741935483
1456.0516330366324,67.74193548387096
1457.051668498883,80.64516129032258
1458.0517039611334,70.96774193548387
1459.0517394233837,54.83870967741935
1460.0517748856341,25.806451612903224
1461.0518103478846,3.225806451612903
1462.051845810135,-19.354838709677416
1463.0518812723856,-35.483870967741936
1464.0519167346358,-45.16129032258064
1465.0519521968863,-64.51612903225806
1466.0519876591368,-64.51612903225806
1467.0520231213873,-45.16129032258064
1468.0520585836377,0.0
1469.052094045888,77.41935483870967
1470.0521295081385,135.48387096774192
1471.052164970389,116.12903225806453
1472.0522004326394,103.2258064516129
1473.05223589489,58.06451612903226
1474.0522713571402,-54.83870967741935
1475.0523068193907,-64.51612903225806
1476.0523422816411,-83.87096774193549
1477.0523777438916,-74.19354838709677
1478.052413206142,-45.16129032258064
1479.0524486683923,-32.25806451612903
1480.0524841306428,-16.129032258064516
1481.0525195928933,-25.806451612903224
1482.0525550551438,-48.387096774193544
1483.0525905173943,-41.935483870967744
1484.0526259796445,-16.129032258064516
1485.052661441895,-3.225806451612903
1486.0526969041455,16.129032258064516
1487.052732366396,25.806451612903224
1488.0527678286464,41.935483870967744
1489.0528032908967,64.51612903225806
1490.0528387531472,83.87096774193549
1491.0528742153977,87.09677419354838
1492.0529096776481,61.29032258064516
1493.0529451398986,38.70967741935483
1494.0529806021489,9.677419354838708
1495.0530160643993,-9.677419354838708
1496.0530515266498,-22.58064516129032
1497.0530869889003,-35.483870967741936
1498.0531224511508,-58.06451612903226
1499.053157913401,-70.96774193548387
1500.0531933756515,-51.61290322580645
1501.053228837902,-16.129032258064516
1502.0532643001525,-6.451612903225806
1503.053299762403,16.129032258064516
1504.0533352246532,29.03225806451613
1505.0533706869037,38.70967741935483
1506.0534061491542,61.29032258064516
1507.0534416114047,74.19354838709677
1508.0534770736551,74.19354838709677
1509.0535125359054,54.83870967741935
1510.0535479981559,32.25806451612903
1511.0535834604063,12.903225806451612
1512.0536189226568,-12.903225806451612
1513.0536543849073,-19.354838709677416
1514.0536898471576,-35.483870967741936
1515.053725309408,-58.06451612903226
1516.0537607716585,-64.51612903225806
1517.053796233909,-51.61290322580645
1518.0538316961595,-22.58064516129032
1519.0538671584097,-6.451612903225806
1520.0539026206602,9.677419354838708
1521.0539380829107,29.03225806451613
1522.0539735451612,54.83870967741935
1523.0540090074117,64.51612903225806
1524.054044469662,80.64516129032258
1525.0540799319124,61.29032258064516
1526.0541153941629,41.935483870967744
1527.0541508564133,16.129032258064516
1528.0541863186638,-3.225806451612903
1529.054221780914,-25.806451612903224
1530.0542572431646,-32.25806451612903
1531.054292705415,-48.387096774193544
1532.0543281676655,-58.06451612903226
1533.054363629916,-45.16129032258064
1534.0543990921662,-29.03225806451613
1535.0544345544167,-3.225806451612903
1536.0544700166672,9.677419354838708
1537.0545054789177,6.451612903225806
1538.0545409411682,3.225806451612903
1539.0545764034184,16.129032258064516
1540.054611865669,58.06451612903226
1541.0546473279194,74.19354838709677
1542.0546827901699,61.29032258064516
1543.0547182524203,35.483870967741936
1544.0547537146706,16.129032258064516
1545.054789176921,3.225806451612903
1546.0548246391716,-16.129032258064516
1547.054860101422,-35.483870967741936
1548.0548955636725,-48.387096774193544
1549.0549310259228,-67.74193548387096
1550.0549664881732,-48.387096774193544
1551.0550019504237,-25.806451612903224
1552.0550374126742,-9.677419354838708
1553.0550728749247,16.129032258064516
1554.055108337175,32.25806451612903
1555.0551437994254,35.483870967741936
1556.055179261676,67.74193548387096
1557.0552147239264,83.87096774193549
1558.0552501861769,77.41935483870967
1559.0552856484271,54.83870967741935
1560.0553211106776,22.58064516129032
1561.055356572928,19.354838709677416
1562.0553920351786,9.677419354838708
1563.055427497429,41.935483870967744
1564.0554629596793,38.70967741935483
1565.0554984219298,0.0
1566.0555338841802,-96.77419354838709
1567.0555693464307,-125.80645161290322
1568.0556048086812,-87.09677419354838
1569.0556402709315,-64.51612903225806
1570.055675733182,-38.70967741935483
1571.0557111954324,-32.25806451612903
1572.055746657683,0.0
1573.0557821199334,61.29032258064516
1574.0558175821836,90.32258064516128
1575.0558530444341,83.87096774193549
1576.0558885066846,64.51612903225806
1577.055923968935,32.25806451612903
1578.0559594311856,6.451612903225806
1579.0559948934358,-9.677419354838708
1580.0560303556863,-25.806451612903224
1581.0560658179368,-38.70967741935483
1582.0561012801872,-54.83870967741935
1583.0561367424377,-51.61290322580645
1584.056172204688,-32.25806451612903
1585.0562076669385,-12.903225806451612
1586.056243129189,12.903225806451612
1587.0562785914394,29.03225806451613
1588.05631405369,58.06451612903226
1589.0563495159402,83.87096774193549
1590.0563849781906,80.64516129032258
1591.0564204404411,83.87096774193549
1592.0564559026916,41.935483870967744
1593.056491364942,16.129032258064516
1594.0565268271923,-6.451612903225806
1595.0565622894428,-25.806451612903224
1596.0565977516933,-29.03225806451613
1597.0566332139438,-41.935483870967744
1598.0566686761942,-67.74193548387096
1599.0567041384445,-67.74193548387096
1600.056739600695,-51.61290322580645
1601.0567750629455,-19.354838709677416
1602.056810525196,3.225806451612903
1603.0568459874464,12.903225806451612
1604.0568814496967,35.483870967741936
1605.0569169119472,35.483870967741936
1606.0569523741976,70.96774193548387
1607.0569878364481,90.32258064516128
1608.0570232986986,80.64516129032258
1609.0570587609488,61.29032258064516
1610.0570942231993,19.354838709677416
1611.0571296854498,-6.451612903225806
1612.0571651477003,-25.806451612903224
1613.0572006099508,-22.58064516129032
1614.057236072201,-38.70967741935483
1615.0572715344515,-48.387096774193544
1616.057306996702,-29.03225806451613
1617.0573424589525,3.225806451612903
1618.057377921203,19.354838709677416
1619.0574133834532,32.25806451612903
1620.0574488457037,6.451612903225806
1621.0574843079542,-9.677419354838708
1622.0575197702046,-16.129032258064516
1623.057555232455,38.70967741935483
1624.0575906947054,48.387096774193544
1625.0576261569558,64.51612903225806
1626.0576616192063,70.96774193548387
1627.0576970814568,32.25806451612903
1628.057732543707,3.225806451612903
1629.0577680059575,-38.70967741935483
1630.057803468208,-74.19354838709677
1631.0578389304585,-70.96774193548387
1632.057874392709,-61.29032258064516
1633.0579098549592,-32.25806451612903
1634.0579453172097,-22.58064516129032
1635.0579807794602,-35.483870967741936
1636.0580162417107,-25.806451612903224
1637.0580517039612,9.677419354838708
1638.0580871662114,32.25806451612903
1639.058122628462,58.06451612903226
1640.0581580907124,74.19354838709677
1641.0581935529628,77.41935483870967
1642.0582290152133,54.83870967741935
1643.0582644774636,38.70967741935483
1644.058299939714,9.677419354838708
1645.0583354019645,0.0
1646.058370864215,-9.677419354838708
1647.0584063264655,-35.483870967741936
1648.0584417887158,-51.61290322580645
1649.0584772509662,-61.29032258064516
1650.0585127132167,-45.16129032258064
1651.0585481754672,-9.677419354838708
1652.0585836377177,25.806451612903224
1653.058619099968,70.96774193548387
1654.0586545622184,70.96774193548387
1655.058690024469,64.51612903225806
1656.0587254867194,54.83870967741935
1657.0587609489698,35.483870967741936
1658.05879641122,9.677419354838708
1659.0588318734706,-9.677419354838708
1660.058867335721,3.225806451612903
1661.0589027979715,3.225806451612903
1662.058938260222,3.225806451612903
1663.0589737224723,-16.129032258064516
1664.0590091847228,-54.83870967741935
1665.0590446469732,-77.41935483870967
1666.0590801092237,-74.19354838709677
1667.0591155714742,-48.387096774193544
1668.0591510337244,-12.903225806451612
1669.059186495975,3.225806451612903
1670.0592219582254,29.03225806451613
1671.059257420476,29.03225806451613
1672.0592928827264,77.41935483870967
1673.0593283449766,99.99999999999999
1674.059363807227,125.80645161290322
1675.0593992694776,164.51612903225805
1676.059434731728,161.29032258064515
1677.0594701939785,70.96774193548387
1678.0595056562288,-54.83870967741935
1679.0595411184793,-109.6774193548387
1680.0595765807298,-158.06451612903226
1681.0596120429802,-129.03225806451613
1682.0596475052307,-90.32258064516128
1683.059682967481,-32.25806451612903
1684.0597184297314,12.903225806451612
1685.059753891982,-29.03225806451613
1686.0597893542324,-41.935483870967744
1687.059824816483,3.225806451612903
1688.0598602787331,22.58064516129032
1689.0598957409836,51.61290322580645
1690.059931203234,48.387096774193544
1691.0599666654846,41.935483870967744
1692.060002127735,29.03225806451613
1693.0600375899853,22.58064516129032
1694.0600730522358,29.03225806451613
1695.0601085144863,16.129032258064516
1696.0601439767368,0.0
1697.0601794389872,-19.354838709677416
1698.0602149012375,3.225806451612903
1699.060250363488,54.83870967741935
1700.0602858257384,138.70967741935482
1701.060321287989,70.96774193548387
1702.0603567502394,74.19354838709677
1703.0603922124897,16.129032258064516
1704.0604276747401,-29.03225806451613
1705.0604631369906,-67.74193548387096
1706.060498599241,-16.129032258064516
1707.0605340614916,-99.99999999999999
1708.0605695237418,-90.32258064516128
1709.0606049859923,-61.29032258064516
1710.0606404482428,6.451612903225806
1711.0606759104933,19.354838709677416
1712.0607113727438,-6.451612903225806
1713.060746834994,-22.58064516129032
1714.0607822972445,-64.51612903225806
1715.060817759495,-96.77419354838709
1716.0608532217454,-48.387096774193544
1717.060888683996,-9.677419354838708
1718.0609241462462,-6.451612903225806
1719.0609596084967,19.354838709677416
1720.0609950707471,35.483870967741936
1721.0610305329976,83.87096774193549
1722.061065995248,109.6774193548387
1723.0611014574984,141.93548387096774
1724.0611369197488,112.9032258064516
1725.0611723819993,80.64516129032258
1726.0612078442498,41.935483870967744
1727.0612433065003,-16.129032258064516
1728.0612787687505,-25.806451612903224
1729.061314231001,-41.935483870967744
1730.0613496932515,-54.83870967741935
1731.061385155502,-70.96774193548387
1732.0614206177524,-96.77419354838709
1733.0614560800027,-64.51612903225806
1734.0614915422532,-22.58064516129032
1735.0615270045037,3.225806451612903
1736.0615624667541,22.58064516129032
1737.0615979290046,35.483870967741936
1738.0616333912549,41.935483870967744
1739.0616688535054,67.74193548387096
1740.0617043157558,93.54838709677418
1741.0617397780063,96.77419354838709
1742.0617752402568,64.51612903225806
1743.061810702507,45.16129032258064
1744.0618461647575,16.129032258064516
1745.061881627008,-12.903225806451612
1746.0619170892585,-29.03225806451613
1747.061952551509,-51.61290322580645
1748.0619880137592,-67.74193548387096
1749.0620234760097,-77.41935483870967
1750.0620589382602,-48.387096774193544
1751.0620944005107,-25.806451612903224
1752.0621298627611,-3.225806451612903
1753.0621653250114,19.354838709677416
1754.0622007872619,32.25806451612903
1755.0622362495124,51.61290322580645
1756.0622717117628,93.54838709677418
1757.0623071740133,112.9032258064516
1758.0623426362636,87.09677419354838
1759.062378098514,87.09677419354838
1760.0624135607645,51.61290322580645
1761.062449023015,-9.677419354838708
1762.0624844852655,-48.387096774193544
1763.0625199475157,-41.935483870967744
1764.0625554097662,-70.96774193548387
1765.0625908720167,-135.48387096774192
1766.0626263342672,-125.80645161290322
1767.0626617965177,-35.483870967741936
1768.062697258768,35.483870967741936
1769.0627327210184,35.483870967741936
1770.0627681832689,19.354838709677416
1771.0628036455194,22.58064516129032
1772.0628391077698,45.16129032258064
1773.06287457002,109.6774193548387
1774.0629100322706,96.77419354838709
1775.062945494521,93.54838709677418
1776.0629809567715,106.4516129032258
1777.063016419022,45.16129032258064
1778.0630518812723,51.61290322580645
1779.0630873435227,29.03225806451613
1780.0631228057732,-64.51612903225806
1781.0631582680237,-167.74193548387098
1782.0631937302742,-199.99999999999997
1783.0632291925244,-190.32258064516128
1784.063264654775,-141.93548387096774
1785.0633001170254,-64.51612903225806
1786.0633355792759,45.16129032258064
1787.0633710415264,70.96774193548387
1788.0634065037766,41.935483870967744
1789.063441966027,80.64516129032258
1790.0634774282776,112.9032258064516
1791.063512890528,122.58064516129032
1792.0635483527785,64.51612903225806
1793.0635838150288,29.03225806451613
1794.0636192772793,25.806451612903224
1795.0636547395297,9.677419354838708
1796.0636902017802,-12.903225806451612
1797.0637256640305,-38.70967741935483
1798.063761126281,-35.483870967741936
1799.0637965885314,112.9032258064516
1800.063832050782,180.64516129032256
1801.0638675130324,90.32258064516128
1802.0639029752826,-45.16129032258064
1803.0639384375331,-103.2258064516129
1804.0639738997836,-148.38709677419354
1805.064009362034,-103.2258064516129
1806.0640448242846,-35.483870967741936
1807.0640802865348,38.70967741935483
1808.0641157487853,45.16129032258064
1809.0641512110358,58.06451612903226
1810.0641866732863,9.677419354838708
1811.0642221355367,-19.354838709677416
1812.064257597787,-22.58064516129032
1813.0642930600375,-29.03225806451613
1814.064328522288,-35.483870967741936
1815.0643639845384,-41.935483870967744
1816.064399446789,-35.483870967741936
1817.0644349090392,-29.03225806451613
1818.0644703712896,-29.03225806451613
1819.0645058335401,45.16129032258064
1820.0645412957906,103.2258064516129
1821.064576758041,54.83870967741935
1822.0646122202913,22.58064516129032
1823.0646476825418,77.41935483870967
1824.0646831447923,87.09677419354838
1825.0647186070428,-9.677419354838708
1826.0647540692933,-6.451612903225806
1827.0647895315435,0.0
1828.064824993794,25.806451612903224
1829.0648604560445,12.903225806451612
1830.064895918295,-3.225806451612903
1831.0649313805454,-51.61290322580645
1832.0649668427957,-90.32258064516128
1833.0650023050462,-99.99999999999999
1834.0650377672966,-70.96774193548387
1835.0650732295471,-6.451612903225806
1836.0651086917976,3.225806451612903
1837.0651441540479,16.129032258064516
1838.0651796162983,41.935483870967744
1839.0652150785488,93.54838709677418
1840.0652505407993,141.93548387096774
1841.0652860030498,135.48387096774192
1842.0653214653,87.09677419354838
1843.0653569275505,45.16129032258064
1844.065392389801,6.451612903225806
1845.0654278520515,38.70967741935483
1846.065463314302,74.19354838709677
1847.0654987765522,12.903225806451612
1848.0655342388027,-87.09677419354838
1849.0655697010532,-129.03225806451613
1850.0656051633036,-99.99999999999999
1851.0656406255541,-41.935483870967744
1852.0656760878044,-29.03225806451613
1853.0657115500549,-64.51612903225806
1854.0657470123053,-32.25806451612903
1855.0657824745558,19.354838709677416
1856.0658179368063,151.61290322580646
1857.0658533990566,261.2903225806452
1858.065888861307,203.2258064516129
1859.0659243235575,64.51612903225806
1860.065959785808,19.354838709677416
1861.0659952480585,-74.19354838709677
1862.0660307103087,-187.09677419354836
1863.0660661725592,-203.2258064516129
1864.0661016348097,-187.09677419354836
1865.0661370970602,-61.29032258064516
1866.0661725593106,212.9032258064516
1867.066208021561,258.06451612903226
1868.0662434838114,154.83870967741933
1869.0662789460619,-25.806451612903224
1870.0663144083123,-129.03225806451613
1871.0663498705628,-235.48387096774195
1872.066385332813,-196.7741935483871
1873.0664207950636,-109.6774193548387
1874.066456257314,-25.806451612903224
1875.0664917195645,80.64516129032258
1876.066527181815,109.6774193548387
1877.0665626440652,67.74193548387096
1878.0665981063157,35.483870967741936
1879.0666335685662,-32.25806451612903
1880.0666690308167,-35.483870967741936
1881.0667044930672,-45.16129032258064
1882.0667399553174,-58.06451612903226
1883.066775417568,-35.483870967741936
1884.0668108798184,3.225806451612903
1885.0668463420689,25.806451612903224
1886.0668818043193,38.70967741935483
1887.0669172665696,51.61290322580645
1888.06695272882,54.83870967741935
1889.0669881910705,90.32258064516128
1890.067023653321,112.9032258064516
1891.0670591155715,112.9032258064516
1892.0670945778218,77.41935483870967
1893.0671300400722,38.70967741935483
1894.0671655023227,9.677419354838708
1895.0672009645732,-12.903225806451612
1896.0672364268237,-25.806451612903224
1897.067271889074,-45.16129032258064
1898.0673073513244,-80.64516129032258
1899.067342813575,-96.77419354838709
1900.0673782758254,-67.74193548387096
1901.0674137380759,-25.806451612903224
1902.067449200326,12.903225806451612
1903.0674846625766,45.16129032258064
1904.067520124827,80.64516129032258
1905.0675555870775,96.77419354838709
1906.067591049328,125.80645161290322
1907.0676265115783,99.99999999999999
1908.0676619738288,12.903225806451612
1909.0676974360792,3.225806451612903
1910.0677328983297,16.129032258064516
1911.0677683605802,-22.58064516129032
1912.0678038228305,-25.806451612903224
1913.067839285081,-3.225806451612903
1914.0678747473314,-67.74193548387096
1915.067910209582,-145.16129032258067
1916.0679456718324,-141.93548387096774
1917.0679811340826,-80.64516129032258
1918.068016596333,-16.129032258064516
1919.0680520585836,38.70967741935483
1920.068087520834,77.41935483870967
1921.0681229830845,93.54838709677418
1922.0681584453348,99.99999999999999
1923.0681939075853,96.77419354838709
1924.0682293698358,99.99999999999999
1925.0682648320862,51.61290322580645
1926.0683002943367,-32.25806451612903
1927.068335756587,-61.29032258064516
1928.0683712188375,-9.677419354838708
1929.068406681088,3.225806451612903
1930.0684421433384,-54.83870967741935
1931.068477605589,-99.99999999999999
1932.0685130678391,-119.35483870967742
1933.0685485300896,-87.09677419354838
1934.06858399234,-41.935483870967744
1935.0686194545906,6.451612903225806
1936.068654916841,48.387096774193544
1937.0686903790913,74.19354838709677
1938.0687258413418,87.09677419354838
1939.0687613035923,90.32258064516128
1940.0687967658428,125.80645161290322
1941.0688322280932,138.70967741935482
1942.0688676903435,70.96774193548387
1943.068903152594,-16.129032258064516
1944.0689386148445,-48.387096774193544
1945.068974077095,-32.25806451612903
1946.0690095393454,-25.806451612903224
1947.0690450015957,-64.51612903225806
1948.0690804638461,-119.35483870967742
1949.0691159260966,-106.4516129032258
1950.069151388347,-45.16129032258064
1951.0691868505976,-16.129032258064516
1952.0692223128478,16.129032258064516
1953.0692577750983,48.387096774193544
1954.0692932373488,48.387096774193544
1955.0693286995993,64.51612903225806
1956.0693641618498,112.9032258064516
1957.0693996241,129.03225806451613
1958.0694350863505,106.4516129032258
1959.069470548601,70.96774193548387
1960.0695060108515,22.58064516129032
1961.069541473102,0.0
1962.0695769353522,-32.25806451612903
1963.0696123976027,-48.387096774193544
1964.0696478598531,-58.06451612903226
1965.0696833221036,-61.29032258064516
1966.0697187843539,-32.25806451612903
1967.0697542466044,-3.225806451612903
1968.0697897088548,25.806451612903224
1969.0698251711053,61.29032258064516
1970.0698606333558,9.677419354838708
1971.069896095606,0.0
1972.0699315578565,-67.74193548387096
1973.069967020107,-45.16129032258064
1974.0700024823575,41.935483870967744
1975.070037944608,51.61290322580645
1976.0700734068582,32.25806451612903
1977.0701088691087,-3.225806451612903
1978.0701443313592,-3.225806451612903
1979.0701797936097,-22.58064516129032
1980.0702152558601,-41.935483870967744
1981.0702507181104,-67.74193548387096
1982.0702861803609,-83.87096774193549
1983.0703216426114,-61.29032258064516
1984.0703571048618,-25.806451612903224
1985.0703925671123,9.677419354838708
1986.0704280293626,29.03225806451613
1987.070463491613,51.61290322580645
1988.0704989538635,64.51612903225806
1989.070534416114,109.6774193548387
1990.0705698783645,125.80645161290322
1991.0706053406147,112.9032258064516
1992.0706408028652,67.74193548387096
1993.0706762651157,29.03225806451613
1994.0707117273662,-12.903225806451612
1995.0707471896167,-32.25806451612903
1996.070782651867,-38.70967741935483
1997.0708181141174,-67.74193548387096
1998.0708535763679,-90.32258064516128
1999.0708890386184,-87.09677419354838
2000.0709245008688,-61.29032258064516
2001.070959963119,-19.354838709677416
2002.0709954253696,-9.677419354838708
2003.07103088762,16.129032258064516
2004.0710663498705,29.03225806451613
2005.071101812121,61.29032258064516
2006.0711372743713,116.12903225806453
2007.0711727366217,122.58064516129032
2008.0712081988722,77.41935483870967
2009.0712436611227,48.387096774193544
2010.0712791233732,29.03225806451613
2011.0713145856234,0.0
2012.071350047874,-32.25806451612903
2013.0713855101244,-41.935483870967744
2014.0714209723749,-64.51612903225806
2015.0714564346254,-116.12903225806453
2016.0714918968756,-90.32258064516128
2017.071527359126,-3.225806451612903
2018.0715628213766,38.70967741935483
2019.071598283627,25.806451612903224
2020.0716337458775,16.129032258064516
2021.0716692081278,-41.935483870967744
2022.0717046703783,16.129032258064516
2023.0717401326287,116.12903225806453
2024.0717755948792,151.61290322580646
2025.0718110571297,96.77419354838709
2026.07184651938,38.70967741935483
2027.0718819816304,-16.129032258064516
2028.071917443881,-9.677419354838708
2029.0719529061314,-45.16129032258064
2030.0719883683819,-99.99999999999999
2031.0720238306321,-99.99999999999999
2032.0720592928826,-96.77419354838709
2033.072094755133,-64.51612903225806
2034.0721302173836,-35.483870967741936
2035.072165679634,0.0
2036.0722011418843,38.70967741935483
2037.0722366041348,48.387096774193544
2038.0722720663853,61.29032258064516
2039.0723075286357,106.4516129032258
2040.0723429908862,129.03225806451613
2041.0723784531365,106.4516129032258
2042.072413915387,70.96774193548387
2043.0724493776374,22.58064516129032
2044.072484839888,-9.677419354838708
2045.0725203021384,-38.70967741935483
2046.0725557643887,-41.935483870967744
2047.0725912266391,-64.51612903225806
2048.0726266888896,-93.54838709677418
2049.07266215114,-99.99999999999999
2050.0726976133906,-64.51612903225806
2051.072733075641,-32.25806451612903
2052.0727685378915,6.451612903225806
2053.072804000142,32.25806451612903
2054.072839462392,41.935483870967744
2055.0728749246427,70.96774193548387
2056.072910386893,116.12903225806453
2057.0729458491437,132.258064516129
2058.072981311394,93.54838709677418
2059.073016773644,41.935483870967744
2060.073052235895,32.25806451612903
2061.073087698145,12.903225806451612
2062.073123160396,9.677419354838708
2063.073158622646,6.451612903225806
2064.0731940848964,-70.96774193548387
2065.073229547147,-170.96774193548387
2066.0732650093973,-174.19354838709677
2067.073300471648,-116.12903225806453
2068.0733359338983,-45.16129032258064
2069.0733713961486,16.129032258064516
2070.0734068583993,54.83870967741935
2071.0734423206495,54.83870967741935
2072.0734777829,93.54838709677418
2073.0735132451505,132.258064516129
2074.0735487074007,119.35483870967742
2075.0735841696514,90.32258064516128
2076.0736196319017,45.16129032258064
2077.0736550941524,3.225806451612903
2078.0736905564027,-29.03225806451613
2079.073726018653,-35.483870967741936
2080.0737614809036,-48.387096774193544
2081.073796943154,-90.32258064516128
2082.0738324054046,-93.54838709677418
2083.073867867655,-22.58064516129032
2084.073903329905,-9.677419354838708
2085.073938792156,-22.58064516129032
2086.073974254406,41.935483870967744
2087.0740097166567,64.51612903225806
2088.074045178907,16.129032258064516
2089.0740806411573,48.387096774193544
2090.074116103408,138.70967741935482
2091.074151565658,141.93548387096774
2092.074187027909,148.38709677419354
2093.074222490159,119.35483870967742
2094.0742579524094,35.483870967741936
2095.07429341466,-99.99999999999999
2096.0743288769104,-167.74193548387098
2097.074364339161,-183.8709677419355
2098.0743998014113,-187.09677419354836
2099.0744352636616,-145.16129032258067
2100.0744707259123,-45.16129032258064
2101.0745061881626,3.225806451612903
2102.0745416504133,29.03225806451613
2103.0745771126635,58.06451612903226
2104.0746125749138,54.83870967741935
2105.0746480371645,80.64516129032258
2106.0746834994147,119.35483870967742
2107.0747189616654,145.16129032258067
2108.0747544239157,106.4516129032258
2109.074789886166,74.19354838709677
2110.0748253484167,29.03225806451613
2111.074860810667,9.677419354838708
2112.0748962729176,-51.61290322580645
2113.074931735168,-61.29032258064516
2114.074967197418,-103.2258064516129
2115.075002659669,-116.12903225806453
2116.075038121919,-74.19354838709677
2117.07507358417,-35.483870967741936
2118.07510904642,-9.677419354838708
2119.0751445086703,19.354838709677416
2120.075179970921,38.70967741935483
2121.0752154331713,41.935483870967744
2122.075250895422,87.09677419354838
2123.075286357672,119.35483870967742
2124.0753218199225,109.6774193548387
2125.075357282173,77.41935483870967
2126.0753927444234,35.483870967741936
2127.075428206674,3.225806451612903
2128.0754636689244,-16.129032258064516
2129.0754991311746,-35.483870967741936
2130.0755345934253,-61.29032258064516
2131.0755700556756,-90.32258064516128
2132.0756055179263,-99.99999999999999
2133.0756409801766,-67.74193548387096
2134.075676442427,-35.483870967741936
2135.0757119046775,-3.225806451612903
2136.0757473669278,22.58064516129032
2137.0757828291785,45.16129032258064
2138.0758182914287,64.51612903225806
2139.075853753679,93.54838709677418
2140.0758892159297,122.58064516129032
2141.07592467818,99.99999999999999
2142.0759601404307,58.06451612903226
2143.075995602681,19.354838709677416
2144.076031064931,-12.903225806451612
2145.076066527182,-29.03225806451613
2146.076101989432,-41.935483870967744
2147.076137451683,-77.41935483870967
2148.076172913933,-103.2258064516129
2149.0762083761833,-96.77419354838709
2150.076243838434,-51.61290322580645
2151.0762793006843,-22.58064516129032
2152.076314762935,12.903225806451612
2153.0763502251853,29.03225806451613
2154.0763856874355,41.935483870967744
2155.076421149686,83.87096774193549
2156.0764566119365,109.6774193548387
2157.076492074187,109.6774193548387
2158.0765275364374,80.64516129032258
2159.0765629986877,45.16129032258064
2160.0765984609384,25.806451612903224
2161.0766339231886,-6.451612903225806
2162.0766693854393,-54.83870967741935
2163.0767048476896,-54.83870967741935
2164.07674030994,-64.51612903225806
2165.0767757721906,-96.77419354838709
2166.076811234441,-77.41935483870967
2167.0768466966915,-54.83870967741935
2168.0768821589418,-9.677419354838708
2169.076917621192,12.903225806451612
2170.0769530834427,38.70967741935483
2171.076988545693,54.83870967741935
2172.0770240079437,83.87096774193549
2173.077059470194,125.80645161290322
2174.077094932444,116.12903225806453
2175.077130394695,70.96774193548387
2176.077165856945,38.70967741935483
2177.077201319196,3.225806451612903
2178.077236781446,-16.129032258064516
2179.0772722436964,-51.61290322580645
2180.077307705947,-67.74193548387096
2181.0773431681973,-80.64516129032258
2182.077378630448,-87.09677419354838
2183.0774140926983,-70.96774193548387
2184.0774495549485,-29.03225806451613
2185.0774850171993,51.61290322580645
2186.0775204794495,93.54838709677418
2187.0775559417,48.387096774193544
2188.0775914039505,6.451612903225806
2189.0776268662007,45.16129032258064
2190.0776623284514,64.51612903225806
2191.0776977907017,96.77419354838709
2192.0777332529524,93.54838709677418
2193.0777687152026,58.06451612903226
2194.077804177453,-32.25806451612903
2195.0778396397036,-38.70967741935483
2196.077875101954,-48.387096774193544
2197.0779105642046,-83.87096774193549
2198.077946026455,-96.77419354838709
2199.077981488705,-77.41935483870967
2200.0780169509558,3.225806451612903
2201.078052413206,19.354838709677416
2202.0780878754567,-16.129032258064516
2203.078123337707,16.129032258064516
2204.0781587999572,51.61290322580645
2205.078194262208,93.54838709677418
2206.078229724458,103.2258064516129
2207.078265186709,61.29032258064516
2208.078300648959,9.677419354838708
2209.0783361112094,-9.677419354838708
2210.07837157346,-22.58064516129032
2211.0784070357104,-12.903225806451612
2212.078442497961,-29.03225806451613
2213.0784779602113,-38.70967741935483
2214.0785134224616,-74.19354838709677
2215.0785488847123,-93.54838709677418
2216.0785843469625,-80.64516129032258
2217.0786198092133,-41.935483870967744
2218.0786552714635,3.225806451612903
2219.0786907337138,32.25806451612903
2220.0787261959645,45.16129032258064
2221.0787616582147,58.06451612903226
2222.078797120465,93.54838709677418
2223.0788325827157,116.12903225806453
2224.078868044966,119.35483870967742
2225.0789035072166,77.41935483870967
2226.078938969467,38.70967741935483
2227.078974431717,0.0
2228.079009893968,-25.806451612903224
2229.079045356218,-41.935483870967744
2230.079080818469,-51.61290322580645
2231.079116280719,-80.64516129032258
2232.0791517429693,-96.77419354838709
2233.07918720522,-70.96774193548387
2234.0792226674703,-38.70967741935483
2235.079258129721,-16.129032258064516
2236.0792935919712,25.806451612903224
2237.0793290542215,80.64516129032258
2238.079364516472,99.99999999999999
2239.0793999787224,135.48387096774192
2240.079435440973,87.09677419354838
2241.0794709032234,35.483870967741936
2242.0795063654737,38.70967741935483
2243.0795418277244,51.61290322580645
2244.0795772899746,-29.03225806451613
2245.0796127522253,-48.387096774193544
2246.0796482144756,-38.70967741935483
2247.079683676726,-64.51612903225806
2248.0797191389765,-93.54838709677418
2249.079754601227,-87.09677419354838
2250.0797900634775,-61.29032258064516
2251.0798255257278,-38.70967741935483
2252.079860987978,-6.451612903225806
2253.0798964502287,25.806451612903224
2254.079931912479,51.61290322580645
2255.0799673747297,77.41935483870967
2256.08000283698,119.35483870967742
2257.08003829923,119.35483870967742
2258.080073761481,80.64516129032258
2259.080109223731,51.61290322580645
2260.080144685982,16.129032258064516
2261.080180148232,-19.354838709677416
2262.0802156104824,-48.387096774193544
2263.080251072733,-58.06451612903226
2264.0802865349833,-77.41935483870967
2265.080321997234,-99.99999999999999
2266.0803574594843,-77.41935483870967
2267.0803929217345,-38.70967741935483
2268.0804283839852,-9.677419354838708
2269.0804638462355,16.129032258064516
2270.080499308486,38.70967741935483
2271.0805347707364,48.387096774193544
2272.0805702329867,77.41935483870967
2273.0806056952374,116.12903225806453
2274.0806411574877,112.9032258064516
2275.0806766197384,74.19354838709677
2276.0807120819886,38.70967741935483
2277.080747544239,-3.225806451612903
2278.0807830064896,-22.58064516129032
2279.08081846874,-45.16129032258064
2280.0808539309905,-61.29032258064516
2281.080889393241,-93.54838709677418
2282.080924855491,-99.99999999999999
2283.0809603177418,-67.74193548387096
2284.080995779992,-35.483870967741936
2285.0810312422427,3.225806451612903
2286.081066704493,32.25806451612903
2287.081102166743,54.83870967741935
2288.081137628994,96.77419354838709
2289.081173091244,132.258064516129
2290.081208553495,132.258064516129
2291.081244015745,64.51612903225806
2292.0812794779954,41.935483870967744
2293.081314940246,19.354838709677416
2294.0813504024964,-9.677419354838708
2295.081385864747,-12.903225806451612
2296.0814213269973,-54.83870967741935
2297.0814567892476,-93.54838709677418
2298.0814922514983,-122.58064516129032
2299.0815277137485,-151.61290322580646
2300.0815631759992,-93.54838709677418
2301.0815986382495,-12.903225806451612
2302.0816341004997,25.806451612903224
2303.0816695627504,41.935483870967744
2304.0817050250007,54.83870967741935
2305.0817404872514,87.09677419354838
2306.0817759495017,122.58064516129032
2307.081811411752,116.12903225806453
2308.0818468740026,74.19354838709677
2309.081882336253,51.61290322580645
2310.0819177985036,35.483870967741936
2311.081953260754,-12.903225806451612
2312.081988723004,-32.25806451612903
2313.082024185255,-22.58064516129032
2314.082059647505,-58.06451612903226
2315.0820951097558,-99.99999999999999
2316.082130572006,-99.99999999999999
2317.0821660342563,-74.19354838709677
2318.082201496507,-25.806451612903224
2319.082236958757,12.903225806451612
2320.082272421008,35.483870967741936
2321.082307883258,51.61290322580645
2322.0823433455084,90.32258064516128
2323.082378807759,116.12903225806453
2324.0824142700094,112.9032258064516
2325.08244973226,70.96774193548387
2326.0824851945104,35.483870967741936
2327.0825206567606,0.0
2328.0825561190113,-25.806451612903224
2329.0825915812616,-38.70967741935483
2330.0826270435123,-61.29032258064516
2331.0826625057625,-83.87096774193549
2332.082697968013,-96.77419354838709
2333.0827334302635,-64.51612903225806
2334.0827688925137,-29.03225806451613
2335.0828043547644,9.677419354838708
2336.0828398170147,32.25806451612903
2337.082875279265,38.70967741935483
2338.0829107415157,61.29032258064516
2339.082946203766,109.6774193548387
2340.0829816660166,151.61290322580646
2341.083017128267,129.03225806451613
2342.083052590517,58.06451612903226
2343.083088052768,-35.483870967741936
2344.083123515018,-38.70967741935483
2345.083158977269,-38.70967741935483
2346.083194439519,-58.06451612903226
2347.0832299017693,-87.09677419354838
2348.08326536402,-112.9032258064516
2349.0833008262703,-67.74193548387096
2350.083336288521,-9.677419354838708
2351.083371750771,19.354838709677416
2352.0834072130215,32.25806451612903
2353.083442675272,-6.451612903225806
2354.0834781375224,0.0
2355.083513599773,45.16129032258064
2356.0835490620234,93.54838709677418
2357.0835845242736,109.6774193548387
2358.0836199865244,83.87096774193549
2359.0836554487746,48.387096774193544
2360.0836909110253,12.903225806451612
2361.0837263732756,-6.451612903225806
2362.083761835526,-22.58064516129032
2363.0837972977765,-41.935483870967744
2364.083832760027,-58.06451612903226
2365.0838682222775,-87.09677419354838
2366.0839036845277,-83.87096774193549
2367.083939146778,-45.16129032258064
2368.0839746090287,-32.25806451612903
2369.084010071279,3.225806451612903
2370.0840455335297,22.58064516129032
2371.08408099578,41.935483870967744
2372.08411645803,80.64516129032258
2373.084151920281,125.80645161290322
2374.084187382531,122.58064516129032
2375.084222844782,77.41935483870967
2376.084258307032,35.483870967741936
2377.0842937692823,9.677419354838708
2378.084329231533,0.0
2379.0843646937833,-38.70967741935483
2380.084400156034,-64.51612903225806
2381.0844356182843,-93.54838709677418
2382.0844710805345,-109.6774193548387
2383.084506542785,-70.96774193548387
2384.0845420050355,-6.451612903225806
2385.084577467286,19.354838709677416
2386.0846129295364,12.903225806451612
2387.0846483917867,25.806451612903224
2388.0846838540374,45.16129032258064
2389.0847193162876,87.09677419354838
2390.0847547785384,106.4516129032258
2391.0847902407886,103.2258064516129
2392.084825703039,67.74193548387096
2393.0848611652896,45.16129032258064
2394.08489662754,16.129032258064516
2395.0849320897905,-3.225806451612903
2396.084967552041,29.03225806451613
2397.085003014291,-64.51612903225806
2398.0850384765417,-138.70967741935482
2399.085073938792,-145.16129032258067
2400.0851094010427,-129.03225806451613
2401.085144863293,-64.51612903225806
2402.085180325543,-32.25806451612903
2403.085215787794,25.806451612903224
2404.085251250044,41.935483870967744
2405.085286712295,77.41935483870967
2406.085322174545,125.80645161290322
2407.0853576367954,119.35483870967742
2408.085393099046,96.77419354838709
2409.0854285612963,64.51612903225806
2410.085464023547,25.806451612903224
2411.0854994857973,-9.677419354838708
2412.0855349480476,-25.806451612903224
2413.0855704102983,-16.129032258064516
2414.0856058725485,-38.70967741935483
2415.085641334799,-70.96774193548387
2416.0856767970495,-67.74193548387096
2417.0857122592997,-58.06451612903226
2418.0857477215504,-25.806451612903224
2419.0857831838007,-19.354838709677416
2420.0858186460514,-3.225806451612903
2421.0858541083016,25.806451612903224
2422.085889570552,93.54838709677418
2423.0859250328026,116.12903225806453
2424.085960495053,109.6774193548387
2425.0859959573036,70.96774193548387
2426.086031419554,32.25806451612903
2427.086066881804,0.0
2428.086102344055,-25.806451612903224
2429.086137806305,-41.935483870967744
2430.0861732685557,-51.61290322580645
2431.086208730806,-83.87096774193549
2432.0862441930562,-93.54838709677418
2433.086279655307,-58.06451612903226
2434.086315117557,-32.25806451612903
2435.086350579808,6.451612903225806
2436.086386042058,29.03225806451613
2437.0864215043084,35.483870967741936
2438.086456966559,54.83870967741935
2439.0864924288094,96.77419354838709
2440.08652789106,119.35483870967742
2441.0865633533103,99.99999999999999
2442.0865988155606,41.935483870967744
2443.0866342778113,19.354838709677416
2444.0866697400616,12.903225806451612
2445.0867052023123,-22.58064516129032
2446.0867406645625,-41.935483870967744
2447.0867761268128,-74.19354838709677
2448.0868115890635,-96.77419354838709
2449.0868470513137,-96.77419354838709
2450.0868825135644,-64.51612903225806
2451.0869179758147,-22.58064516129032
2452.086953438065,3.225806451612903
2453.0869889003156,38.70967741935483
2454.087024362566,48.387096774193544
2455.0870598248166,80.64516129032258
2456.087095287067,106.4516129032258
2457.087130749317,106.4516129032258
2458.087166211568,70.96774193548387
2459.087201673818,29.03225806451613
2460.087237136069,9.677419354838708
2461.087272598319,-19.354838709677416
2462.0873080605693,-32.25806451612903
2463.08734352282,-48.387096774193544
2464.0873789850702,-80.64516129032258
2465.087414447321,-93.54838709677418
2466.087449909571,-77.41935483870967
2467.0874853718215,-48.387096774193544
2468.087520834072,-9.677419354838708
2469.0875562963224,9.677419354838708
2470.087591758573,35.483870967741936
2471.0876272208234,51.61290322580645
2472.0876626830736,87.09677419354838
2473.0876981453243,122.58064516129032
2474.0877336075746,106.4516129032258
2475.0877690698253,70.96774193548387
2476.0878045320756,45.16129032258064
2477.087839994326,6.451612903225806
2478.0878754565765,-3.225806451612903
2479.0879109188268,-3.225806451612903
2480.0879463810775,-25.806451612903224
2481.0879818433277,-90.32258064516128
2482.088017305578,-151.61290322580646
2483.0880527678287,-106.4516129032258
2484.088088230079,-45.16129032258064
2485.0881236923296,-3.225806451612903
2486.08815915458,25.806451612903224
2487.08819461683,35.483870967741936
2488.088230079081,64.51612903225806
2489.088265541331,96.77419354838709
2490.088301003582,116.12903225806453
2491.088336465832,96.77419354838709
2492.0883719280823,51.61290322580645
2493.088407390333,12.903225806451612
2494.0884428525833,-16.129032258064516
2495.088478314834,-35.483870967741936
2496.0885137770842,-51.61290322580645
2497.0885492393345,-67.74193548387096
2498.088584701585,-90.32258064516128
2499.0886201638355,-80.64516129032258
2500.088655626086,-41.935483870967744
2501.0886910883364,3.225806451612903
2502.0887265505867,35.483870967741936
2503.0887620128374,64.51612903225806
2504.0887974750876,64.51612903225806
2505.0888329373383,116.12903225806453
2506.0888683995886,138.70967741935482
2507.088903861839,109.6774193548387
2508.0889393240896,54.83870967741935
2509.08897478634,9.677419354838708
2510.0890102485905,-19.354838709677416
2511.0890457108408,-48.387096774193544
2512.089081173091,-58.06451612903226
2513.0891166353417,-64.51612903225806
2514.089152097592,-77.41935483870967
2515.0891875598427,-99.99999999999999
2516.089223022093,-77.41935483870967
2517.089258484343,-41.935483870967744
2518.089293946594,-9.677419354838708
2519.089329408844,16.129032258064516
2520.089364871095,38.70967741935483
2521.089400333345,41.935483870967744
2522.0894357955954,77.41935483870967
2523.089471257846,116.12903225806453
2524.0895067200963,122.58064516129032
2525.089542182347,74.19354838709677
2526.0895776445973,35.483870967741936
2527.0896131068475,-3.225806451612903
2528.0896485690982,-22.58064516129032
2529.0896840313485,-35.483870967741936
2530.089719493599,-45.16129032258064
2531.0897549558495,-80.64516129032258
2532.0897904180997,-99.99999999999999
2533.0898258803504,-74.19354838709677
2534.0898613426007,-38.70967741935483
2535.0898968048514,-9.677419354838708
2536.0899322671016,16.129032258064516
2537.089967729352,29.03225806451613
2538.0900031916026,41.935483870967744
2539.090038653853,74.19354838709677
2540.0900741161036,96.77419354838709
2541.090109578354,83.87096774193549
2542.090145040604,51.61290322580645
2543.0901805028548,19.354838709677416
2544.090215965105,-6.451612903225806
2545.0902514273557,-51.61290322580645
2546.090286889606,-45.16129032258064
2547.0903223518562,-38.70967741935483
2548.090357814107,-61.29032258064516
2549.090393276357,-58.06451612903226
2550.090428738608,-41.935483870967744
2551.090464200858,-3.225806451612903
2552.0904996631084,48.387096774193544
2553.090535125359,83.87096774193549
2554.0905705876094,93.54838709677418
2555.09060604986,116.12903225806453
2556.0906415121103,148.38709677419354
2557.0906769743606,116.12903225806453
2558.0907124366113,12.903225806451612
2559.0907478988615,-32.25806451612903
2560.090783361112,-116.12903225806453
2561.0908188233625,-151.61290322580646
2562.0908542856127,-148.38709677419354
2563.0908897478635,-141.93548387096774
2564.0909252101137,-141.93548387096774
2565.090960672364,-132.258064516129
2566.0909961346147,-103.2258064516129
2567.091031596865,-64.51612903225806
2568.0910670591156,-22.58064516129032
2569.091102521366,16.129032258064516
2570.091137983616,45.16129032258064
2571.091173445867,61.29032258064516
2572.091208908117,96.77419354838709
2573.091244370368,125.80645161290322
2574.091279832618,122.58064516129032
2575.0913152948683,96.77419354838709
2576.091350757119,64.51612903225806
2577.0913862193693,25.806451612903224
2578.09142168162,9.677419354838708
2579.0914571438702,-9.677419354838708
2580.0914926061205,-25.806451612903224
2581.091528068371,-48.387096774193544
2582.0915635306214,-58.06451612903226
2583.091598992872,-41.935483870967744
2584.0916344551224,-19.354838709677416
2585.0916699173727,9.677419354838708
2586.0917053796234,35.483870967741936
2587.0917408418736,35.483870967741936
2588.0917763041243,54.83870967741935
2589.0918117663746,96.77419354838709
2590.091847228625,125.80645161290322
2591.0918826908755,99.99999999999999
2592.091918153126,70.96774193548387
2593.0919536153765,48.387096774193544
2594.0919890776267,12.903225806451612
2595.092024539877,-16.129032258064516
2596.0920600021277,-29.03225806451613
2597.092095464378,-58.06451612903226
2598.0921309266287,-80.64516129032258
2599.092166388879,-74.19354838709677
2600.092201851129,-41.935483870967744
2601.09223731338,-12.903225806451612
2602.09227277563,9.677419354838708
2603.092308237881,25.806451612903224
2604.092343700131,45.16129032258064
2605.0923791623813,64.51612903225806
2606.092414624632,103.2258064516129
2607.0924500868823,96.77419354838709
2608.092485549133,64.51612903225806
2609.0925210113833,35.483870967741936
2610.0925564736335,3.225806451612903
2611.0925919358842,-16.129032258064516
2612.0926273981345,-48.387096774193544
2613.092662860385,-48.387096774193544
2614.0926983226354,-77.41935483870967
2615.0927337848857,-93.54838709677418
2616.0927692471364,-70.96774193548387
2617.0928047093867,-38.70967741935483
2618.0928401716374,-6.451612903225806
2619.0928756338876,22.58064516129032
2620.092911096138,29.03225806451613
2621.0929465583886,38.70967741935483
2622.092982020639,70.96774193548387
2623.0930174828895,96.77419354838709
2624.09305294514,87.09677419354838
2625.09308840739,61.29032258064516
2626.0931238696407,38.70967741935483
2627.093159331891,9.677419354838708
2628.0931947941417,16.129032258064516
2629.093230256392,12.903225806451612
2630.093265718642,-9.677419354838708
2631.093301180893,-35.483870967741936
2632.093336643143,-61.29032258064516
2633.093372105394,-54.83870967741935
2634.093407567644,-38.70967741935483
2635.0934430298944,-19.354838709677416
2636.093478492145,3.225806451612903
2637.0935139543953,6.451612903225806
2638.093549416646,32.25806451612903
2639.0935848788963,67.74193548387096
2640.0936203411466,93.54838709677418
2641.0936558033973,90.32258064516128
2642.0936912656475,58.06451612903226
2643.0937267278982,25.806451612903224
2644.0937621901485,0.0
2645.0937976523987,-12.903225806451612
2646.0938331146494,-22.58064516129032
2647.0938685768997,-51.61290322580645
2648.0939040391504,-83.87096774193549
2649.0939395014007,-83.87096774193549
2650.093974963651,-64.51612903225806
2651.0940104259016,-29.03225806451613
2652.094045888152,0.0
2653.0940813504026,16.129032258064516
2654.094116812653,25.806451612903224
2655.094152274903,48.387096774193544
2656.094187737154,90.32258064516128
2657.094223199404,87.09677419354838
2658.0942586616547,70.96774193548387
2659.094294123905,48.387096774193544
2660.0943295861553,22.58064516129032
2661.094365048406,-3.225806451612903
2662.094400510656,-12.903225806451612
2663.094435972907,-25.806451612903224
2664.094471435157,-64.51612903225806
2665.0945068974074,-83.87096774193549
2666.094542359658,-80.64516129032258
2667.0945778219084,-58.06451612903226
2668.094613284159,-35.483870967741936
2669.0946487464093,0.0
2670.0946842086596,19.354838709677416
2671.0947196709103,51.61290322580645
2672.0947551331606,83.87096774193549
2673.0947905954113,109.6774193548387
2674.0948260576615,109.6774193548387
2675.094861519912,77.41935483870967
2676.0948969821625,41.935483870967744
2677.0949324444127,-16.129032258064516
2678.0949679066634,-58.06451612903226
2679.0950033689137,-70.96774193548387
2680.095038831164,-74.19354838709677
2681.0950742934147,-99.99999999999999
2682.095109755665,-103.2258064516129
2683.0951452179156,-54.83870967741935
2684.095180680166,-3.225806451612903
2685.095216142416,45.16129032258064
2686.095251604667,74.19354838709677
2687.095287066917,77.41935483870967
2688.095322529168,83.87096774193549
2689.095357991418,109.6774193548387
2690.0953934536683,129.03225806451613
2691.095428915919,112.9032258064516
2692.0954643781693,54.83870967741935
2693.09549984042,9.677419354838708
2694.09553530267,-25.806451612903224
2695.0955707649205,-25.806451612903224
2696.095606227171,-35.483870967741936
2697.0956416894214,-51.61290322580645
2698.095677151672,-74.19354838709677
2699.0957126139224,-83.87096774193549
2700.0957480761726,-38.70967741935483
2701.0957835384233,-9.677419354838708
2702.0958190006736,12.903225806451612
2703.0958544629243,12.903225806451612
2704.0958899251746,19.354838709677416
2705.095925387425,35.483870967741936
2706.0959608496755,67.74193548387096
2707.095996311926,64.51612903225806
2708.0960317741765,48.387096774193544
2709.0960672364267,9.677419354838708
2710.096102698677,-22.58064516129032
2711.0961381609277,-48.387096774193544
2712.096173623178,-51.61290322580645
2713.0962090854287,-48.387096774193544
2714.096244547679,-48.387096774193544
2715.096280009929,-64.51612903225806
2716.09631547218,-35.483870967741936
2717.09635093443,16.129032258064516
2718.096386396681,45.16129032258064
2719.096421858931,54.83870967741935
2720.0964573211813,51.61290322580645
2721.096492783432,58.06451612903226
2722.0965282456823,74.19354838709677
2723.096563707933,83.87096774193549
2724.0965991701833,70.96774193548387
2725.0966346324335,45.16129032258064
2726.096670094684,19.354838709677416
2727.0967055569345,-9.677419354838708
2728.096741019185,-32.25806451612903
2729.0967764814354,-54.83870967741935
2730.0968119436857,-67.74193548387096
2731.0968474059364,-87.09677419354838
2732.0968828681866,-87.09677419354838
2733.0969183304373,-70.96774193548387
2734.0969537926876,-48.387096774193544
2735.096989254938,-22.58064516129032
2736.0970247171886,16.129032258064516
2737.097060179439,35.483870967741936
2738.0970956416895,61.29032258064516
2739.09713110394,83.87096774193549
2740.09716656619,112.9032258064516
2741.0972020284407,96.77419354838709
2742.097237490691,64.51612903225806
2743.0972729529417,58.06451612903226
2744.097308415192,25.806451612903224
2745.097343877442,0.0
2746.097379339693,-16.129032258064516
2747.097414801943,-48.387096774193544
2748.097450264194,-83.87096774193549
2749.097485726444,-90.32258064516128
2750.0975211886944,-67.74193548387096
2751.097556650945,-32.25806451612903
2752.0975921131953,-9.677419354838708
2753.097627575446,12.903225806451612
2754.0976630376963,35.483870967741936
2755.0976984999465,61.29032258064516
2756.0977339621973,87.09677419354838
2757.0977694244475,93.54838709677418
2758.097804886698,67.74193548387096
2759.0978403489485,51.61290322580645
2760.0978758111987,25.806451612903224
2761.0979112734494,6.451612903225806
2762.0979467356997,-19.354838709677416
2763.0979821979504,-38.70967741935483
2764.0980176602006,-83.87096774193549
2765.098053122451,-99.99999999999999
2766.0980885847016,-90.32258064516128
2767.098124046952,-48.387096774193544
2768.0981595092026,-6.451612903225806
2769.098194971453,25.806451612903224
2770.098230433703,45.16129032258064
2771.098265895954,61.29032258064516
2772.098301358204,80.64516129032258
2773.0983368204547,96.77419354838709
2774.098372282705,80.64516129032258
2775.0984077449552,58.06451612903226
2776.098443207206,45.16129032258064
2777.098478669456,6.451612903225806
2778.098514131707,-6.451612903225806
2779.098549593957,-41.935483870967744
2780.0985850562074,-70.96774193548387
2781.098620518458,-90.32258064516128
2782.0986559807084,-96.77419354838709
2783.098691442959,-74.19354838709677
2784.0987269052093,-38.70967741935483
2785.0987623674596,6.451612903225806
2786.0987978297103,41.935483870967744
2787.0988332919605,67.74193548387096
2788.0988687542113,80.64516129032258
2789.0989042164615,106.4516129032258
2790.0989396787118,96.77419354838709
2791.0989751409625,80.64516129032258
2792.0990106032127,45.16129032258064
2793.0990460654634,22.58064516129032
2794.0990815277137,-22.58064516129032
2795.099116989964,-38.70967741935483
2796.0991524522146,-38.70967741935483
2797.099187914465,-67.74193548387096
2798.0992233767156,-87.09677419354838
2799.099258838966,-77.41935483870967
2800.099294301216,-67.74193548387096
2801.099329763467,-38.70967741935483
2802.099365225717,-16.129032258064516
2803.099400687968,19.354838709677416
2804.099436150218,35.483870967741936
2805.0994716124683,77.41935483870967
2806.099507074719,99.99999999999999
2807.0995425369692,109.6774193548387
2808.09957799922,93.54838709677418
2809.09961346147,61.29032258064516
2810.0996489237205,25.806451612903224
2811.099684385971,6.451612903225806
2812.0997198482214,-16.129032258064516
2813.099755310472,-32.25806451612903
2814.0997907727224,-61.29032258064516
2815.0998262349726,-83.87096774193549
2816.0998616972233,-80.64516129032258
2817.0998971594736,-58.06451612903226
2818.0999326217243,-25.806451612903224
2819.0999680839745,-6.451612903225806
2820.100003546225,3.225806451612903
2821.1000390084755,9.677419354838708
2822.1000744707258,25.806451612903224
2823.1001099329765,48.387096774193544
2824.1001453952267,70.96774193548387
2825.100180857477,45.16129032258064
2826.1002163197277,35.483870967741936
2827.100251781978,16.129032258064516
2828.1002872442286,38.70967741935483
2829.100322706479,32.25806451612903
2830.100358168729,25.806451612903224
2831.10039363098,-6.451612903225806
2832.10042909323,-9.677419354838708
2833.100464555481,-25.806451612903224
2834.100500017731,-38.70967741935483
2835.1005354799813,-16.129032258064516
2836.100570942232,-3.225806451612903
2837.1006064044823,-3.225806451612903
2838.100641866733,16.129032258064516
2839.1006773289832,48.387096774193544
2840.1007127912335,74.19354838709677
2841.100748253484,64.51612903225806
2842.1007837157345,29.03225806451613
2843.100819177985,3.225806451612903
2844.1008546402354,-29.03225806451613
2845.1008901024857,-41.935483870967744
2846.1009255647364,-54.83870967741935
2847.1009610269866,-67.74193548387096
2848.1009964892373,-83.87096774193549
2849.1010319514876,-64.51612903225806
2850.101067413738,-38.70967741935483
2851.1011028759885,3.225806451612903
2852.101138338239,25.806451612903224
2853.1011738004895,61.29032258064516
2854.1012092627398,64.51612903225806
2855.10124472499,74.19354838709677
2856.1012801872407,96.77419354838709
2857.101315649491,93.54838709677418
2858.1013511117417,67.74193548387096
2859.101386573992,32.25806451612903
2860.101422036242,9.677419354838708
2861.101457498493,-16.129032258064516
2862.101492960743,-35.483870967741936
2863.101528422994,-48.387096774193544
2864.101563885244,-70.96774193548387
2865.1015993474944,-83.87096774193549
2866.101634809745,-74.19354838709677
2867.1016702719953,-48.387096774193544
2868.101705734246,-16.129032258064516
2869.1017411964963,6.451612903225806
2870.1017766587465,35.483870967741936
2871.1018121209972,58.06451612903226
2872.1018475832475,87.09677419354838
2873.101883045498,109.6774193548387
2874.1019185077485,93.54838709677418
2875.1019539699987,61.29032258064516
2876.1019894322494,25.806451612903224
2877.1020248944997,3.225806451612903
2878.1020603567504,-22.58064516129032
2879.1020958190006,-35.483870967741936
2880.102131281251,-45.16129032258064
2881.1021667435016,-74.19354838709677
2882.102202205752,-99.99999999999999
2883.1022376680025,-64.51612903225806
2884.102273130253,-38.70967741935483
2885.102308592503,-12.903225806451612
2886.1023440547538,9.677419354838708
2887.102379517004,29.03225806451613
2888.1024149792547,77.41935483870967
2889.102450441505,112.9032258064516
2890.102485903755,132.258064516129
2891.102521366006,112.9032258064516
2892.102556828256,54.83870967741935
2893.102592290507,22.58064516129032
2894.102627752757,-6.451612903225806
2895.1026632150074,-32.25806451612903
2896.102698677258,-35.483870967741936
2897.1027341395084,-58.06451612903226
2898.102769601759,-87.09677419354838
2899.1028050640093,-80.64516129032258
2900.1028405262596,-48.387096774193544
2901.1028759885103,-22.58064516129032
2902.1029114507605,-16.129032258064516
2903.102946913011,-6.451612903225806
2904.1029823752615,6.451612903225806
2905.1030178375117,38.70967741935483
2906.1030532997625,90.32258064516128
2907.1030887620127,103.2258064516129
2908.103124224263,87.09677419354838
2909.1031596865137,61.29032258064516
2910.103195148764,25.806451612903224
2911.1032306110146,-9.677419354838708
2912.103266073265,-35.483870967741936
2913.103301535515,-38.70967741935483
2914.103336997766,-58.06451612903226
2915.103372460016,-77.41935483870967
2916.103407922267,-67.74193548387096
2917.103443384517,-58.06451612903226
2918.1034788467673,-48.387096774193544
2919.103514309018,-12.903225806451612
2920.1035497712683,12.903225806451612
2921.103585233519,54.83870967741935
2922.103620695769,93.54838709677418
2923.1036561580195,132.258064516129
2924.10369162027,109.6774193548387
2925.1037270825204,67.74193548387096
2926.103762544771,29.03225806451613
2927.1037980070214,3.225806451612903
2928.1038334692716,-3.225806451612903
2929.1038689315224,-3.225806451612903
2930.1039043937726,-12.903225806451612
2931.1039398560233,-45.16129032258064
2932.1039753182736,-70.96774193548387
2933.104010780524,-64.51612903225806
2934.1040462427745,-48.387096774193544
2935.104081705025,-16.129032258064516
2936.1041171672755,0.0
2937.1041526295257,12.903225806451612
2938.104188091776,29.03225806451613
2939.1042235540267,64.51612903225806
2940.104259016277,77.41935483870967
2941.1042944785277,80.64516129032258
2942.104329940778,51.61290322580645
2943.104365403028,25.806451612903224
2944.104400865279,-3.225806451612903
2945.104436327529,-19.354838709677416
2946.10447178978,-38.70967741935483
2947.10450725203,-61.29032258064516
2948.1045427142803,-83.87096774193549
2949.104578176531,-64.51612903225806
2950.1046136387813,-45.16129032258064
2951.104649101032,-12.903225806451612
2952.1046845632823,0.0
2953.1047200255325,25.806451612903224
2954.104755487783,25.806451612903224
2955.1047909500335,54.83870967741935
2956.104826412284,90.32258064516128
2957.1048618745344,93.54838709677418
2958.1048973367847,74.19354838709677
2959.1049327990354,48.387096774193544
2960.1049682612856,16.129032258064516
2961.1050037235364,-12.903225806451612
2962.1050391857866,-32.25806451612903
2963.105074648037,-41.935483870967744
2964.1051101102876,-64.51612903225806
2965.105145572538,-70.96774193548387
2966.1051810347885,-61.29032258064516
2967.105216497039,-38.70967741935483
2968.105251959289,-9.677419354838708
2969.1052874215397,9.677419354838708
2970.10532288379,29.03225806451613
2971.1053583460407,45.16129032258064
2972.105393808291,70.96774193548387
2973.105429270541,87.09677419354838
2974.105464732792,74.19354838709677
2975.105500195042,64.51612903225806
2976.105535657293,29.03225806451613
2977.105571119543,3.225806451612903
2978.1056065817934,-9.677419354838708
2979.105642044044,-35.483870967741936
2980.1056775062943,-51.61290322580645
2981.105712968545,-67.74193548387096
2982.1057484307953,-87.09677419354838
2983.1057838930456,-74.19354838709677
2984.1058193552963,-45.16129032258064
2985.1058548175465,3.225806451612903
2986.105890279797,35.483870967741936
2987.1059257420475,61.29032258064516
2988.1059612042977,90.32258064516128
2989.1059966665484,96.77419354838709
2990.1060321287987,99.99999999999999
2991.1060675910494,77.41935483870967
2992.1061030532996,38.70967741935483
2993.10613851555,12.903225806451612
2994.1061739778006,-16.129032258064516
2995.106209440051,-38.70967741935483
2996.1062449023016,-48.387096774193544
2997.106280364552,-74.19354838709677
2998.106315826802,-99.99999999999999
2999.106351289053,-96.77419354838709
3000.106386751303,-67.74193548387096
3001.1064222135537,-12.903225806451612
3002.106457675804,32.25806451612903
3003.1064931380542,67.74193548387096
3004.106528600305,77.41935483870967
3005.106564062555,83.87096774193549
3006.106599524806,116.12903225806453
3007.106634987056,99.99999999999999
3008.1066704493064,80.64516129032258
3009.106705911557,41.935483870967744
3010.1067413738074,9.677419354838708
3011.106776836058,-19.354838709677416
3012.1068122983083,-38.70967741935483
3013.1068477605586,-48.387096774193544
3014.1068832228093,-74.19354838709677
3015.1069186850596,-83.87096774193549
3016.1069541473103,-70.96774193548387
3017.1069896095605,-48.387096774193544
3018.1070250718108,-12.903225806451612
3019.1070605340615,6.451612903225806
3020.1070959963117,19.354838709677416
3021.1071314585624,25.806451612903224
3022.1071669208127,54.83870967741935
3023.107202383063,87.09677419354838
3024.1072378453136,83.87096774193549
3025.107273307564,64.51612903225806
3026.1073087698146,35.483870967741936
3027.107344232065,9.677419354838708
3028.107379694315,-9.677419354838708
3029.107415156566,-22.58064516129032
3030.107450618816,-45.16129032258064
3031.107486081067,-51.61290322580645
3032.107521543317,-67.74193548387096
3033.1075570055673,-51.61290322580645
3034.107592467818,-25.806451612903224
3035.1076279300682,-6.451612903225806
3036.107663392319,16.129032258064516
3037.107698854569,19.354838709677416
3038.1077343168195,38.70967741935483
3039.10776977907,74.19354838709677
3040.1078052413204,93.54838709677418
3041.107840703571,80.64516129032258
3042.1078761658214,51.61290322580645
3043.1079116280716,25.806451612903224
3044.1079470903223,-3.225806451612903
3045.1079825525726,-22.58064516129032
3046.1080180148233,-35.483870967741936
3047.1080534770736,-58.06451612903226
3048.108088939324,-80.64516129032258
3049.1081244015745,-83.87096774193549
3050.1081598638248,-51.61290322580645
3051.1081953260755,-16.129032258064516
3052.1082307883257,3.225806451612903
3053.108266250576,22.58064516129032
3054.1083017128267,29.03225806451613
3055.108337175077,58.06451612903226
3056.1083726373276,112.9032258064516
3057.108408099578,119.35483870967742
3058.108443561828,83.87096774193549
3059.108479024079,32.25806451612903
3060.108514486329,0.0
3061.10854994858,-35.483870967741936
3062.10858541083,-41.935483870967744
3063.1086208730803,-16.129032258064516
3064.108656335331,-25.806451612903224
3065.1086917975813,-32.25806451612903
3066.108727259832,-16.129032258064516
3067.1087627220822,-19.354838709677416
3068.1087981843325,-22.58064516129032
3069.108833646583,-9.677419354838708
3070.1088691088335,6.451612903225806
3071.108904571084,19.354838709677416
3072.1089400333344,48.387096774193544
3073.1089754955847,93.54838709677418
3074.1090109578354,96.77419354838709
3075.1090464200856,67.74193548387096
3076.1090818823363,29.03225806451613
3077.1091173445866,-3.225806451612903
3078.109152806837,-25.806451612903224
3079.1091882690876,-35.483870967741936
3080.109223731338,-51.61290322580645
3081.1092591935885,-67.74193548387096
3082.1092946558388,-83.87096774193549
3083.109330118089,-58.06451612903226
3084.1093655803397,-38.70967741935483
3085.10940104259,-9.677419354838708
3086.1094365048407,16.129032258064516
3087.109471967091,25.806451612903224
3088.109507429341,41.935483870967744
3089.109542891592,64.51612903225806
3090.109578353842,90.32258064516128
3091.109613816093,87.09677419354838
3092.109649278343,61.29032258064516
3093.1096847405934,41.935483870967744
3094.109720202844,3.225806451612903
3095.1097556650943,-19.354838709677416
3096.109791127345,-29.03225806451613
3097.1098265895953,-48.387096774193544
3098.1098620518455,-64.51612903225806
3099.1098975140962,-70.96774193548387
3100.1099329763465,-51.61290322580645
3101.109968438597,-32.25806451612903
3102.1100039008475,-6.451612903225806
3103.1100393630977,12.903225806451612
3104.1100748253484,16.129032258064516
3105.1101102875987,41.935483870967744
3106.1101457498494,87.09677419354838
3107.1101812120996,106.4516129032258
3108.11021667435,96.77419354838709
3109.1102521366006,67.74193548387096
3110.110287598851,25.806451612903224
3111.1103230611016,6.451612903225806
3112.110358523352,-16.129032258064516
3113.110393985602,-35.483870967741936
3114.1104294478528,-61.29032258064516
3115.110464910103,-83.87096774193549
3116.1105003723537,-64.51612903225806
3117.110535834604,-38.70967741935483
3118.1105712968542,-16.129032258064516
3119.110606759105,6.451612903225806
3120.110642221355,22.58064516129032
3121.110677683606,38.70967741935483
3122.110713145856,54.83870967741935
3123.1107486081064,87.09677419354838
3124.110784070357,77.41935483870967
3125.1108195326074,54.83870967741935
3126.110854994858,29.03225806451613
3127.1108904571083,0.0
3128.1109259193586,-16.129032258064516
3129.1109613816093,-25.806451612903224
3130.1109968438595,-29.03225806451613
3131.1110323061102,-41.935483870967744
3132.1110677683605,-64.51612903225806
3133.1111032306108,-64.51612903225806
3134.1111386928615,-41.935483870967744
3135.1111741551117,-16.129032258064516
3136.1112096173624,12.903225806451612
3137.1112450796127,29.03225806451613
3138.111280541863,61.29032258064516
3139.1113160041136,83.87096774193549
3140.111351466364,103.2258064516129
3141.1113869286146,77.41935483870967
3142.111422390865,51.61290322580645
3143.111457853115,19.354838709677416
3144.111493315366,-12.903225806451612
3145.111528777616,-32.25806451612903
3146.1115642398668,-32.25806451612903
3147.111599702117,-38.70967741935483
3148.1116351643673,-58.06451612903226
3149.111670626618,-61.29032258064516
3150.1117060888682,-54.83870967741935
3151.111741551119,-25.806451612903224
3152.111777013369,0.0
3153.1118124756194,16.129032258064516
3154.11184793787,25.806451612903224
3155.1118834001204,48.387096774193544
3156.111918862371,77.41935483870967
3157.1119543246214,77.41935483870967
