timestamp,valores
0.0,41.935483870967744
1.0000447447313079,67.74193548387096
2.0000894894626158,77.41935483870967
3.000134234193924,64.51612903225806
4.0001789789252316,22.58064516129032
5.000223723656539,3.225806451612903
6.000268468387848,-9.677419354838708
7.000313213119155,-29.03225806451613
8.000357957850463,-35.483870967741936
9.000402702581772,-38.70967741935483
10.000447447313078,-58.06451612903226
11.000492192044387,-51.61290322580645
12.000536936775696,-25.806451612903224
13.000581681507002,-3.225806451612903
14.00062642623831,19.354838709677416
15.000671170969618,41.935483870967744
16.000715915700926,41.935483870967744
17.000760660432235,41.935483870967744
18.000805405163543,67.74193548387096
19.00085014989485,77.41935483870967
20.000894894626157,51.61290322580645
21.000939639357465,29.03225806451613
22.000984384088774,-6.451612903225806
23.001029128820083,-29.03225806451613
24.00107387355139,-38.70967741935483
25.001118618282696,-38.70967741935483
26.001163363014005,-48.387096774193544
27.001208107745313,-54.83870967741935
28.00125285247662,-41.935483870967744
29.00129759720793,-12.903225806451612
30.001342341939235,9.677419354838708
31.001387086670544,19.354838709677416
32.00143183140185,35.483870967741936
33.00147657613316,41.935483870967744
34.00152132086447,54.83870967741935
35.001566065595775,74.19354838709677
36.00161081032709,64.51612903225806
37.00165555505839,38.70967741935483
38.0017002997897,16.129032258064516
39.00174504452101,-12.903225806451612
40.001789789252314,-25.806451612903224
41.001834533983626,-25.806451612903224
42.00187927871493,-35.483870967741936
43.001924023446236,-51.61290322580645
44.00196876817755,-61.29032258064516
45.00201351290885,-29.03225806451613
46.002058257640165,-6.451612903225806
47.00210300237147,16.129032258064516
48.00214774710278,32.25806451612903
49.00219249183409,38.70967741935483
50.00223723656539,45.16129032258064
51.002281981296704,64.51612903225806
52.00232672602801,77.41935483870967
53.00237147075932,61.29032258064516
54.002416215490626,32.25806451612903
55.00246096022193,16.129032258064516
56.00250570495324,-22.58064516129032
57.00255044968455,-35.483870967741936
58.00259519441586,-38.70967741935483
59.002639939147166,-45.16129032258064
60.00268468387847,-61.29032258064516
61.00272942860978,-48.387096774193544
62.00277417334109,-22.58064516129032
63.0028189180724,-6.451612903225806
64.0028636628037,19.354838709677416
65.00290840753502,25.806451612903224
66.00295315226631,41.935483870967744
67.00299789699763,45.16129032258064
68.00304264172894,67.74193548387096
69.00308738646025,87.09677419354838
70.00313213119155,51.61290322580645
71.00317687592286,16.129032258064516
72.00322162065417,-3.225806451612903
73.00326636538547,-25.806451612903224
74.00331111011678,-35.483870967741936
75.0033558548481,-35.483870967741936
76.0034005995794,-48.387096774193544
77.0034453443107,-58.06451612903226
78.00349008904202,-41.935483870967744
79.00353483377333,-16.129032258064516
80.00357957850463,9.677419354838708
81.00362432323594,25.806451612903224
82.00366906796725,38.70967741935483
83.00371381269855,38.70967741935483
84.00375855742986,54.83870967741935
85.00380330216117,77.41935483870967
86.00384804689247,67.74193548387096
87.00389279162378,38.70967741935483
88.0039375363551,9.677419354838708
89.00398228108641,-22.58064516129032
90.0040270258177,-25.806451612903224
91.00407177054902,-25.806451612903224
92.00411651528033,-38.70967741935483
93.00416126001163,-51.61290322580645
94.00420600474294,-54.83870967741935
95.00425074947425,-29.03225806451613
96.00429549420556,0.0
97.00434023893686,16.129032258064516
98.00438498366817,35.483870967741936
99.00442972839949,32.25806451612903
100.00447447313078,45.16129032258064
101.0045192178621,61.29032258064516
102.00456396259341,77.41935483870967
103.0046087073247,67.74193548387096
104.00465345205602,25.806451612903224
105.00469819678733,-3.225806451612903
106.00474294151864,-19.354838709677416
107.00478768624994,-25.806451612903224
108.00483243098125,-35.483870967741936
109.00487717571256,-38.70967741935483
110.00492192044386,-58.06451612903226
111.00496666517517,-48.387096774193544
112.00501140990649,-22.58064516129032
113.00505615463778,3.225806451612903
114.0051008993691,29.03225806451613
115.00514564410041,35.483870967741936
116.00519038883172,45.16129032258064
117.00523513356302,51.61290322580645
118.00527987829433,67.74193548387096
119.00532462302564,77.41935483870967
120.00536936775694,48.387096774193544
121.00541411248825,16.129032258064516
122.00545885721957,-3.225806451612903
123.00550360195086,-22.58064516129032
124.00554834668218,-35.483870967741936
125.00559309141349,-35.483870967741936
126.0056378361448,-48.387096774193544
127.0056825808761,-51.61290322580645
128.0057273256074,-41.935483870967744
129.0057720703387,-12.903225806451612
130.00581681507003,6.451612903225806
131.00586155980133,32.25806451612903
132.00590630453263,38.70967741935483
133.00595104926396,38.70967741935483
134.00599579399525,51.61290322580645
135.00604053872655,70.96774193548387
136.00608528345788,70.96774193548387
137.00613002818918,35.483870967741936
138.0061747729205,3.225806451612903
139.0062195176518,-9.677419354838708
140.0062642623831,-32.25806451612903
141.00630900711442,-32.25806451612903
142.00635375184572,-35.483870967741936
143.00639849657702,-54.83870967741935
144.00644324130835,-51.61290322580645
145.00648798603964,-32.25806451612903
146.00653273077094,-9.677419354838708
147.00657747550227,12.903225806451612
148.00662222023357,25.806451612903224
149.00666696496486,32.25806451612903
150.0067117096962,38.70967741935483
151.0067564544275,64.51612903225806
152.0068011991588,74.19354838709677
153.0068459438901,61.29032258064516
154.0068906886214,25.806451612903224
155.0069354333527,3.225806451612903
156.00698017808404,-16.129032258064516
157.00702492281533,-32.25806451612903
158.00706966754666,-35.483870967741936
159.00711441227796,-38.70967741935483
160.00715915700926,-54.83870967741935
161.00720390174058,-48.387096774193544
162.00724864647188,-16.129032258064516
163.00729339120318,9.677419354838708
164.0073381359345,22.58064516129032
165.0073828806658,32.25806451612903
166.0074276253971,45.16129032258064
167.00747237012843,51.61290322580645
168.00751711485972,67.74193548387096
169.00756185959102,70.96774193548387
170.00760660432235,48.387096774193544
171.00765134905365,22.58064516129032
172.00769609378494,-9.677419354838708
173.00774083851627,-25.806451612903224
174.00778558324757,-35.483870967741936
175.0078303279789,-41.935483870967744
176.0078750727102,-48.387096774193544
177.0079198174415,-58.06451612903226
178.00796456217282,-35.483870967741936
179.0080093069041,-6.451612903225806
180.0080540516354,12.903225806451612
181.00809879636674,25.806451612903224
182.00814354109804,32.25806451612903
183.00818828582933,41.935483870967744
184.00823303056066,54.83870967741935
185.00827777529196,74.19354838709677
186.00832252002326,64.51612903225806
187.00836726475458,38.70967741935483
188.00841200948588,9.677419354838708
189.00845675421718,-19.354838709677416
190.0085014989485,-35.483870967741936
191.0085462436798,-35.483870967741936
192.00859098841113,-38.70967741935483
193.00863573314243,-54.83870967741935
194.00868047787372,-54.83870967741935
195.00872522260505,-32.25806451612903
196.00876996733635,3.225806451612903
197.00881471206765,22.58064516129032
198.00885945679897,38.70967741935483
199.00890420153027,38.70967741935483
200.00894894626157,38.70967741935483
201.0089936909929,64.51612903225806
202.0090384357242,67.74193548387096
203.0090831804555,61.29032258064516
204.00912792518682,32.25806451612903
205.00917266991812,6.451612903225806
206.0092174146494,-9.677419354838708
207.00926215938074,-25.806451612903224
208.00930690411204,-35.483870967741936
209.00935164884334,-38.70967741935483
210.00939639357466,-61.29032258064516
211.00944113830596,-41.935483870967744
212.00948588303729,-25.806451612903224
213.00953062776858,3.225806451612903
214.00957537249988,32.25806451612903
215.0096201172312,32.25806451612903
216.0096648619625,41.935483870967744
217.0097096066938,45.16129032258064
218.00975435142513,70.96774193548387
219.00979909615643,64.51612903225806
220.00984384088773,41.935483870967744
221.00988858561905,19.354838709677416
222.00993333035035,-12.903225806451612
223.00997807508165,-32.25806451612903
224.01002281981297,-38.70967741935483
225.01006756454427,-35.483870967741936
226.01011230927557,-48.387096774193544
227.0101570540069,-61.29032258064516
228.0102017987382,-38.70967741935483
229.01024654346952,-16.129032258064516
230.01029128820082,12.903225806451612
231.01033603293212,32.25806451612903
232.01038077766344,35.483870967741936
233.01042552239474,38.70967741935483
234.01047026712604,54.83870967741935
235.01051501185736,70.96774193548387
236.01055975658866,64.51612903225806
237.01060450131996,35.483870967741936
238.0106492460513,9.677419354838708
239.01069399078258,-9.677419354838708
240.01073873551388,-22.58064516129032
241.0107834802452,-35.483870967741936
242.0108282249765,-45.16129032258064
243.0108729697078,-48.387096774193544
244.01091771443913,-58.06451612903226
245.01096245917043,-32.25806451612903
246.01100720390173,-6.451612903225806
247.01105194863305,19.354838709677416
248.01109669336435,38.70967741935483
249.01114143809568,35.483870967741936
250.01118618282698,38.70967741935483
251.01123092755827,74.19354838709677
252.0112756722896,80.64516129032258
253.0113204170209,54.83870967741935
254.0113651617522,29.03225806451613
255.01140990648352,0.0
256.0114546512148,-22.58064516129032
257.01149939594615,-41.935483870967744
258.0115441406774,-35.483870967741936
259.01158888540874,-41.935483870967744
260.01163363014007,-61.29032258064516
261.01167837487134,-48.387096774193544
262.01172311960266,-19.354838709677416
263.011767864334,0.0
264.01181260906526,25.806451612903224
265.0118573537966,38.70967741935483
266.0119020985279,48.387096774193544
267.0119468432592,51.61290322580645
268.0119915879905,70.96774193548387
269.01203633272183,74.19354838709677
270.0120810774531,48.387096774193544
271.01212582218443,22.58064516129032
272.01217056691576,-6.451612903225806
273.012215311647,-16.129032258064516
274.01226005637835,-29.03225806451613
275.0123048011097,-29.03225806451613
276.012349545841,-41.935483870967744
277.0123942905723,-64.51612903225806
278.0124390353036,-35.483870967741936
279.0124837800349,-16.129032258064516
280.0125285247662,12.903225806451612
281.0125732694975,35.483870967741936
282.01261801422885,32.25806451612903
283.0126627589601,45.16129032258064
284.01270750369144,61.29032258064516
285.01275224842277,70.96774193548387
286.01279699315404,70.96774193548387
287.01284173788537,35.483870967741936
288.0128864826167,16.129032258064516
289.01293122734796,-12.903225806451612
290.0129759720793,-32.25806451612903
291.0130207168106,-38.70967741935483
292.0130654615419,-45.16129032258064
293.0131102062732,-51.61290322580645
294.01315495100454,-51.61290322580645
295.0131996957358,-22.58064516129032
296.01324444046713,3.225806451612903
297.01328918519846,16.129032258064516
298.01333392992973,35.483870967741936
299.01337867466106,45.16129032258064
300.0134234193924,41.935483870967744
301.01346816412365,67.74193548387096
302.013512908855,70.96774193548387
303.0135576535863,58.06451612903226
304.0136023983176,22.58064516129032
305.0136471430489,6.451612903225806
306.0136918877802,-25.806451612903224
307.0137366325115,-38.70967741935483
308.0137813772428,-35.483870967741936
309.01382612197415,-38.70967741935483
310.0138708667054,-61.29032258064516
311.01391561143674,-38.70967741935483
312.01396035616807,-16.129032258064516
313.0140051008994,0.0
314.01404984563067,16.129032258064516
315.014094590362,35.483870967741936
316.0141393350933,35.483870967741936
317.0141840798246,51.61290322580645
318.0142288245559,70.96774193548387
319.01427356928724,74.19354838709677
320.0143183140185,51.61290322580645
321.01436305874984,22.58064516129032
322.01440780348116,-16.129032258064516
323.01445254821243,-25.806451612903224
324.01449729294376,-32.25806451612903
325.0145420376751,-35.483870967741936
326.01458678240635,-48.387096774193544
327.0146315271377,-58.06451612903226
328.014676271869,-35.483870967741936
329.0147210166003,-9.677419354838708
330.0147657613316,9.677419354838708
331.01481050606293,25.806451612903224
332.0148552507942,38.70967741935483
333.0148999955255,41.935483870967744
334.01494474025685,54.83870967741935
335.0149894849881,77.41935483870967
336.01503422971945,64.51612903225806
337.0150789744508,35.483870967741936
338.01512371918204,6.451612903225806
339.01516846391337,-9.677419354838708
340.0152132086447,-29.03225806451613
341.01525795337596,-38.70967741935483
342.0153026981073,-35.483870967741936
343.0153474428386,-51.61290322580645
344.0153921875699,-54.83870967741935
345.0154369323012,-32.25806451612903
346.01548167703254,0.0
347.0155264217638,12.903225806451612
348.01557116649514,32.25806451612903
349.01561591122646,38.70967741935483
350.0156606559578,54.83870967741935
351.01570540068906,67.74193548387096
352.0157501454204,77.41935483870967
353.0157948901517,61.29032258064516
354.015839634883,29.03225806451613
355.0158843796143,0.0
356.01592912434563,-19.354838709677416
357.0159738690769,-35.483870967741936
358.0160186138082,-32.25806451612903
359.01606335853955,-38.70967741935483
360.0161081032708,-54.83870967741935
361.01615284800215,-41.935483870967744
362.0161975927335,-22.58064516129032
363.01624233746475,0.0
364.0162870821961,22.58064516129032
365.0163318269274,35.483870967741936
366.01637657165867,45.16129032258064
367.01642131639,51.61290322580645
368.0164660611213,64.51612903225806
369.0165108058526,67.74193548387096
370.0165555505839,45.16129032258064
371.01660029531524,19.354838709677416
372.0166450400465,-12.903225806451612
373.01668978477784,-29.03225806451613
374.01673452950916,-41.935483870967744
375.01677927424043,-38.70967741935483
376.01682401897176,-38.70967741935483
377.0168687637031,-51.61290322580645
378.01691350843436,-35.483870967741936
379.0169582531657,-3.225806451612903
380.017002997897,12.903225806451612
381.0170477426283,32.25806451612903
382.0170924873596,45.16129032258064
383.01713723209093,38.70967741935483
384.01718197682226,58.06451612903226
385.0172267215535,67.74193548387096
386.01727146628485,61.29032258064516
387.0173162110162,32.25806451612903
388.01736095574745,9.677419354838708
389.0174057004788,-6.451612903225806
390.0174504452101,-32.25806451612903
391.01749518994137,-32.25806451612903
392.0175399346727,-35.483870967741936
393.017584679404,-45.16129032258064
394.0176294241353,-54.83870967741935
395.0176741688666,-32.25806451612903
396.01771891359795,-3.225806451612903
397.0177636583292,16.129032258064516
398.01780840306054,38.70967741935483
399.01785314779187,38.70967741935483
400.01789789252314,48.387096774193544
401.01794263725446,74.19354838709677
402.0179873819858,74.19354838709677
403.01803212671706,54.83870967741935
404.0180768714484,25.806451612903224
405.0181216161797,0.0
406.018166360911,-16.129032258064516
407.0182111056423,-29.03225806451613
408.01825585037363,-32.25806451612903
409.0183005951049,-41.935483870967744
410.01834533983623,-58.06451612903226
411.01839008456756,-48.387096774193544
412.0184348292988,-22.58064516129032
413.01847957403015,6.451612903225806
414.0185243187615,22.58064516129032
415.01856906349275,35.483870967741936
416.0186138082241,45.16129032258064
417.0186585529554,51.61290322580645
418.01870329768667,70.96774193548387
419.018748042418,74.19354838709677
420.0187927871493,41.935483870967744
421.01883753188065,16.129032258064516
422.0188822766119,-12.903225806451612
423.01892702134325,-29.03225806451613
424.01897176607457,-35.483870967741936
425.01901651080584,-38.70967741935483
426.01906125553717,-45.16129032258064
427.0191060002685,-61.29032258064516
428.01915074499976,-38.70967741935483
429.0191954897311,-12.903225806451612
430.0192402344624,19.354838709677416
431.0192849791937,38.70967741935483
432.019329723925,35.483870967741936
433.01937446865634,38.70967741935483
434.0194192133876,58.06451612903226
435.01946395811893,83.87096774193549
436.01950870285026,64.51612903225806
437.01955344758153,35.483870967741936
438.01959819231286,9.677419354838708
439.0196429370442,-19.354838709677416
440.01968768177545,-32.25806451612903
441.0197324265068,-38.70967741935483
442.0197771712381,-38.70967741935483
443.0198219159694,-51.61290322580645
444.0198666607007,-51.61290322580645
445.019911405432,-29.03225806451613
446.0199561501633,-3.225806451612903
447.0200008948946,19.354838709677416
448.02004563962595,35.483870967741936
449.0200903843572,45.16129032258064
450.02013512908854,45.16129032258064
451.02017987381987,67.74193548387096
452.02022461855114,77.41935483870967
453.02026936328247,54.83870967741935
454.0203141080138,19.354838709677416
455.02035885274506,3.225806451612903
456.0204035974764,-22.58064516129032
457.0204483422077,-38.70967741935483
458.02049308693904,-35.483870967741936
459.0205378316703,-38.70967741935483
460.02058257640164,-54.83870967741935
461.02062732113296,-41.935483870967744
462.02067206586423,-16.129032258064516
463.02071681059556,6.451612903225806
464.0207615553269,25.806451612903224
465.02080630005815,25.806451612903224
466.0208510447895,35.483870967741936
467.0208957895208,48.387096774193544
468.0209405342521,74.19354838709677
469.0209852789834,64.51612903225806
470.02103002371473,48.387096774193544
471.021074768446,19.354838709677416
472.0211195131773,-9.677419354838708
473.02116425790865,-32.25806451612903
474.0212090026399,-41.935483870967744
475.02125374737125,-35.483870967741936
476.0212984921026,-41.935483870967744
477.02134323683384,-54.83870967741935
478.02138798156517,-35.483870967741936
479.0214327262965,-6.451612903225806
480.02147747102777,12.903225806451612
481.0215222157591,32.25806451612903
482.0215669604904,38.70967741935483
483.0216117052217,35.483870967741936
484.021656449953,58.06451612903226
485.02170119468434,77.41935483870967
486.0217459394156,61.29032258064516
487.02179068414694,29.03225806451613
488.02183542887826,6.451612903225806
489.02188017360953,-12.903225806451612
490.02192491834086,-29.03225806451613
491.0219696630722,-35.483870967741936
492.02201440780345,-38.70967741935483
493.0220591525348,-51.61290322580645
494.0221038972661,-58.06451612903226
495.02214864199743,-29.03225806451613
496.0221933867287,0.0
497.02223813146,12.903225806451612
498.02228287619135,35.483870967741936
499.0223276209226,41.935483870967744
500.02237236565395,45.16129032258064
501.0224171103853,67.74193548387096
502.02246185511655,74.19354838709677
503.0225065998479,58.06451612903226
504.0225513445792,22.58064516129032
505.02259608931047,0.0
506.0226408340418,-19.354838709677416
507.0226855787731,-25.806451612903224
508.0227303235044,-38.70967741935483
509.0227750682357,-41.935483870967744
510.02281981296704,-54.83870967741935
511.0228645576983,-41.935483870967744
512.0229093024296,-16.129032258064516
513.022954047161,9.677419354838708
514.0229987918923,19.354838709677416
515.0230435366236,32.25806451612903
516.0230882813548,38.70967741935483
517.0231330260862,54.83870967741935
518.0231777708175,67.74193548387096
519.0232225155488,61.29032258064516
520.0232672602801,38.70967741935483
521.0233120050115,16.129032258064516
522.0233567497427,-6.451612903225806
523.023401494474,-22.58064516129032
524.0234462392053,-35.483870967741936
525.0234909839367,-35.483870967741936
526.023535728668,-38.70967741935483
527.0235804733993,-58.06451612903226
528.0236252181305,-35.483870967741936
529.0236699628618,-9.677419354838708
530.0237147075932,3.225806451612903
531.0237594523245,29.03225806451613
532.0238041970558,38.70967741935483
533.0238489417872,38.70967741935483
534.0238936865184,61.29032258064516
535.0239384312497,77.41935483870967
536.023983175981,58.06451612903226
537.0240279207123,25.806451612903224
538.0240726654437,6.451612903225806
539.024117410175,-9.677419354838708
540.0241621549062,-25.806451612903224
541.0242068996375,-32.25806451612903
542.0242516443689,-41.935483870967744
543.0242963891002,-54.83870967741935
544.0243411338315,-48.387096774193544
545.0243858785628,-25.806451612903224
546.024430623294,3.225806451612903
547.0244753680254,9.677419354838708
548.0245201127567,29.03225806451613
549.024564857488,38.70967741935483
550.0246096022194,48.387096774193544
551.0246543469507,70.96774193548387
552.024699091682,74.19354838709677
553.0247438364132,51.61290322580645
554.0247885811445,29.03225806451613
555.0248333258759,3.225806451612903
556.0248780706072,-16.129032258064516
557.0249228153385,-35.483870967741936
558.0249675600699,-32.25806451612903
559.0250123048011,-45.16129032258064
560.0250570495324,-54.83870967741935
561.0251017942637,-41.935483870967744
562.025146538995,-16.129032258064516
563.0251912837264,6.451612903225806
564.0252360284577,25.806451612903224
565.0252807731889,38.70967741935483
566.0253255179202,41.935483870967744
567.0253702626516,45.16129032258064
568.0254150073829,64.51612903225806
569.0254597521142,64.51612903225806
570.0255044968455,41.935483870967744
571.0255492415768,12.903225806451612
572.0255939863081,-9.677419354838708
573.0256387310394,-29.03225806451613
574.0256834757707,-25.806451612903224
575.0257282205021,-35.483870967741936
576.0257729652334,-48.387096774193544
577.0258177099646,-54.83870967741935
578.0258624546959,-41.935483870967744
579.0259071994273,-9.677419354838708
580.0259519441586,19.354838709677416
581.0259966888899,29.03225806451613
582.0260414336212,38.70967741935483
583.0260861783524,41.935483870967744
584.0261309230838,64.51612903225806
585.0261756678151,74.19354838709677
586.0262204125464,61.29032258064516
587.0262651572777,32.25806451612903
588.0263099020091,12.903225806451612
589.0263546467404,-16.129032258064516
590.0263993914716,-32.25806451612903
591.0264441362029,-35.483870967741936
592.0264888809343,-35.483870967741936
593.0265336256656,-54.83870967741935
594.0265783703969,-51.61290322580645
595.0266231151282,-32.25806451612903
596.0266678598595,-3.225806451612903
597.0267126045908,16.129032258064516
598.0267573493221,29.03225806451613
599.0268020940534,41.935483870967744
600.0268468387848,45.16129032258064
601.0268915835161,67.74193548387096
602.0269363282473,64.51612903225806
603.0269810729786,45.16129032258064
604.02702581771,22.58064516129032
605.0270705624413,-3.225806451612903
606.0271153071726,-19.354838709677416
607.0271600519039,-35.483870967741936
608.0272047966351,-32.25806451612903
609.0272495413665,-35.483870967741936
610.0272942860978,-54.83870967741935
611.0273390308291,-45.16129032258064
612.0273837755605,-22.58064516129032
613.0274285202918,0.0
614.027473265023,25.806451612903224
615.0275180097543,32.25806451612903
616.0275627544856,38.70967741935483
617.027607499217,48.387096774193544
618.0276522439483,67.74193548387096
619.0276969886796,70.96774193548387
620.0277417334108,41.935483870967744
621.0277864781422,22.58064516129032
622.0278312228735,-6.451612903225806
623.0278759676048,-29.03225806451613
624.0279207123361,-38.70967741935483
625.0279654570675,-35.483870967741936
626.0280102017988,-45.16129032258064
627.02805494653,-54.83870967741935
628.0280996912613,-35.483870967741936
629.0281444359927,-6.451612903225806
630.028189180724,12.903225806451612
631.0282339254553,35.483870967741936
632.0282786701866,38.70967741935483
633.0283234149178,41.935483870967744
634.0283681596492,58.06451612903226
635.0284129043805,74.19354838709677
636.0284576491118,64.51612903225806
637.0285023938432,29.03225806451613
638.0285471385745,12.903225806451612
639.0285918833057,-9.677419354838708
640.028636628037,-32.25806451612903
641.0286813727683,-32.25806451612903
642.0287261174997,-38.70967741935483
643.028770862231,-54.83870967741935
644.0288156069623,-51.61290322580645
645.0288603516935,-22.58064516129032
646.0289050964249,6.451612903225806
647.0289498411562,19.354838709677416
648.0289945858875,32.25806451612903
649.0290393306188,38.70967741935483
650.0290840753502,38.70967741935483
651.0291288200814,64.51612903225806
652.0291735648127,70.96774193548387
653.029218309544,51.61290322580645
654.0292630542754,25.806451612903224
655.0293077990067,3.225806451612903
656.029352543738,-22.58064516129032
657.0293972884692,-32.25806451612903
658.0294420332006,-32.25806451612903
659.0294867779319,-41.935483870967744
660.0295315226632,-48.387096774193544
661.0295762673945,-38.70967741935483
662.0296210121259,-19.354838709677416
663.0296657568572,3.225806451612903
664.0297105015884,22.58064516129032
665.0297552463197,38.70967741935483
666.029799991051,41.935483870967744
667.0298447357824,48.387096774193544
668.0298894805137,70.96774193548387
669.029934225245,70.96774193548387
670.0299789699762,45.16129032258064
671.0300237147076,9.677419354838708
672.0300684594389,-9.677419354838708
673.0301132041702,-19.354838709677416
674.0301579489015,-35.483870967741936
675.0302026936329,-35.483870967741936
676.0302474383641,-51.61290322580645
677.0302921830954,-58.06451612903226
678.0303369278267,-38.70967741935483
679.0303816725581,-12.903225806451612
680.0304264172894,12.903225806451612
681.0304711620207,35.483870967741936
682.0305159067519,35.483870967741936
683.0305606514833,45.16129032258064
684.0306053962146,54.83870967741935
685.0306501409459,74.19354838709677
686.0306948856772,58.06451612903226
687.0307396304086,25.806451612903224
688.0307843751398,12.903225806451612
689.0308291198711,-16.129032258064516
690.0308738646024,-32.25806451612903
691.0309186093338,-29.03225806451613
692.0309633540651,-41.935483870967744
693.0310080987964,-51.61290322580645
694.0310528435276,-48.387096774193544
695.031097588259,-29.03225806451613
696.0311423329903,3.225806451612903
697.0311870777216,16.129032258064516
698.0312318224529,35.483870967741936
699.0312765671842,38.70967741935483
700.0313213119156,51.61290322580645
701.0313660566468,77.41935483870967
702.0314108013781,70.96774193548387
703.0314555461094,54.83870967741935
704.0315002908408,19.354838709677416
705.0315450355721,0.0
706.0315897803034,-25.806451612903224
707.0316345250346,-35.483870967741936
708.031679269766,-38.70967741935483
709.0317240144973,-51.61290322580645
710.0317687592286,-48.387096774193544
711.0318135039599,-45.16129032258064
712.0318582486913,-22.58064516129032
713.0319029934225,9.677419354838708
714.0319477381538,19.354838709677416
715.0319924828851,35.483870967741936
716.0320372276165,41.935483870967744
717.0320819723478,58.06451612903226
718.0321267170791,70.96774193548387
719.0321714618103,74.19354838709677
720.0322162065416,41.935483870967744
721.032260951273,19.354838709677416
722.0323056960043,-19.354838709677416
723.0323504407356,-25.806451612903224
724.032395185467,-32.25806451612903
725.0324399301982,-38.70967741935483
726.0324846749295,-45.16129032258064
727.0325294196608,-58.06451612903226
728.0325741643921,-38.70967741935483
729.0326189091235,-9.677419354838708
730.0326636538548,12.903225806451612
731.032708398586,38.70967741935483
732.0327531433173,35.483870967741936
733.0327978880487,35.483870967741936
734.03284263278,61.29032258064516
735.0328873775113,70.96774193548387
736.0329321222426,64.51612903225806
737.032976866974,29.03225806451613
738.0330216117052,6.451612903225806
739.0330663564365,-9.677419354838708
740.0331111011678,-25.806451612903224
741.0331558458992,-35.483870967741936
742.0332005906305,-38.70967741935483
743.0332453353618,-51.61290322580645
744.033290080093,-51.61290322580645
745.0333348248244,-22.58064516129032
746.0333795695557,0.0
747.033424314287,16.129032258064516
748.0334690590183,32.25806451612903
749.0335138037497,35.483870967741936
750.0335585484809,41.935483870967744
751.0336032932122,67.74193548387096
752.0336480379435,70.96774193548387
753.0336927826748,54.83870967741935
754.0337375274062,19.354838709677416
755.0337822721375,-3.225806451612903
756.0338270168687,-22.58064516129032
757.0338717616,-32.25806451612903
758.0339165063314,-35.483870967741936
759.0339612510627,-41.935483870967744
760.034005995794,-48.387096774193544
761.0340507405253,-41.935483870967744
762.0340954852566,-16.129032258064516
763.0341402299879,6.451612903225806
764.0341849747192,19.354838709677416
765.0342297194505,25.806451612903224
766.0342744641819,35.483870967741936
767.0343192089132,58.06451612903226
768.0343639536445,77.41935483870967
769.0344086983757,64.51612903225806
770.034453443107,38.70967741935483
771.0344981878384,12.903225806451612
772.0345429325697,-9.677419354838708
773.034587677301,-29.03225806451613
774.0346324220324,-35.483870967741936
775.0346771667636,-32.25806451612903
776.0347219114949,-45.16129032258064
777.0347666562262,-58.06451612903226
778.0348114009576,-35.483870967741936
779.0348561456889,-6.451612903225806
780.0349008904202,12.903225806451612
781.0349456351514,45.16129032258064
782.0349903798827,35.483870967741936
783.0350351246141,35.483870967741936
784.0350798693454,54.83870967741935
785.0351246140767,70.96774193548387
786.035169358808,61.29032258064516
787.0352141035393,32.25806451612903
788.0352588482706,3.225806451612903
789.0353035930019,-12.903225806451612
790.0353483377332,-29.03225806451613
791.0353930824646,-29.03225806451613
792.0354378271959,-35.483870967741936
793.0354825719271,-48.387096774193544
794.0355273166584,-54.83870967741935
795.0355720613898,-19.354838709677416
796.0356168061211,3.225806451612903
797.0356615508524,16.129032258064516
798.0357062955837,38.70967741935483
799.035751040315,41.935483870967744
800.0357957850463,45.16129032258064
801.0358405297776,64.51612903225806
802.0358852745089,74.19354838709677
803.0359300192403,45.16129032258064
804.0359747639716,22.58064516129032
805.0360195087029,-6.451612903225806
806.0360642534341,-22.58064516129032
807.0361089981654,-38.70967741935483
808.0361537428968,-32.25806451612903
809.0361984876281,-41.935483870967744
810.0362432323594,-61.29032258064516
811.0362879770908,-41.935483870967744
812.036332721822,-16.129032258064516
813.0363774665533,6.451612903225806
814.0364222112846,22.58064516129032
815.0364669560159,35.483870967741936
816.0365117007473,35.483870967741936
817.0365564454786,51.61290322580645
818.0366011902098,74.19354838709677
819.0366459349411,67.74193548387096
820.0366906796725,41.935483870967744
821.0367354244038,19.354838709677416
822.0367801691351,-16.129032258064516
823.0368249138664,-29.03225806451613
824.0368696585977,-29.03225806451613
825.036914403329,-29.03225806451613
826.0369591480603,-45.16129032258064
827.0370038927916,-58.06451612903226
828.037048637523,-29.03225806451613
829.0370933822543,-3.225806451612903
830.0371381269855,12.903225806451612
831.0371828717168,32.25806451612903
832.0372276164481,35.483870967741936
833.0372723611795,38.70967741935483
834.0373171059108,64.51612903225806
835.0373618506421,74.19354838709677
836.0374065953733,58.06451612903226
837.0374513401047,32.25806451612903
838.037496084836,-3.225806451612903
839.0375408295673,-22.58064516129032
840.0375855742986,-29.03225806451613
841.03763031903,-32.25806451612903
842.0376750637613,-41.935483870967744
843.0377198084925,-58.06451612903226
844.0377645532238,-48.387096774193544
845.0378092979552,-29.03225806451613
846.0378540426865,3.225806451612903
847.0378987874178,22.58064516129032
848.0379435321491,38.70967741935483
849.0379882768804,32.25806451612903
850.0380330216117,41.935483870967744
851.038077766343,64.51612903225806
852.0381225110743,74.19354838709677
853.0381672558057,48.387096774193544
854.038212000537,19.354838709677416
855.0382567452682,-6.451612903225806
856.0383014899995,-22.58064516129032
857.0383462347309,-38.70967741935483
858.0383909794622,-38.70967741935483
859.0384357241935,-41.935483870967744
860.0384804689248,-58.06451612903226
861.038525213656,-35.483870967741936
862.0385699583874,-12.903225806451612
863.0386147031187,12.903225806451612
864.03865944785,22.58064516129032
865.0387041925813,32.25806451612903
866.0387489373127,38.70967741935483
867.0387936820439,51.61290322580645
868.0388384267752,74.19354838709677
869.0388831715065,64.51612903225806
870.0389279162379,45.16129032258064
871.0389726609692,16.129032258064516
872.0390174057005,-16.129032258064516
873.0390621504317,-25.806451612903224
874.0391068951631,-35.483870967741936
875.0391516398944,-38.70967741935483
876.0391963846257,-41.935483870967744
877.039241129357,-54.83870967741935
878.0392858740884,-32.25806451612903
879.0393306188197,-6.451612903225806
880.0393753635509,6.451612903225806
881.0394201082822,35.483870967741936
882.0394648530136,41.935483870967744
883.0395095977449,45.16129032258064
884.0395543424762,61.29032258064516
885.0395990872075,70.96774193548387
886.0396438319387,67.74193548387096
887.0396885766701,32.25806451612903
888.0397333214014,3.225806451612903
889.0397780661327,-16.129032258064516
890.039822810864,-38.70967741935483
891.0398675555954,-32.25806451612903
892.0399123003266,-38.70967741935483
893.0399570450579,-51.61290322580645
894.0400017897892,-48.387096774193544
895.0400465345206,-22.58064516129032
896.0400912792519,0.0
897.0401360239832,16.129032258064516
898.0401807687144,38.70967741935483
899.0402255134458,38.70967741935483
900.0402702581771,48.387096774193544
901.0403150029084,67.74193548387096
902.0403597476397,67.74193548387096
903.0404044923711,45.16129032258064
904.0404492371023,19.354838709677416
905.0404939818336,-6.451612903225806
906.0405387265649,-19.354838709677416
907.0405834712963,-25.806451612903224
908.0406282160276,-35.483870967741936
909.0406729607589,-41.935483870967744
910.0407177054901,-48.387096774193544
911.0407624502215,-41.935483870967744
912.0408071949528,-16.129032258064516
913.0408519396841,3.225806451612903
914.0408966844154,25.806451612903224
915.0409414291468,38.70967741935483
916.0409861738781,38.70967741935483
917.0410309186093,54.83870967741935
918.0410756633406,80.64516129032258
919.041120408072,74.19354838709677
920.0411651528033,32.25806451612903
921.0412098975346,9.677419354838708
922.0412546422659,-12.903225806451612
923.0412993869971,-35.483870967741936
924.0413441317285,-38.70967741935483
925.0413888764598,-35.483870967741936
926.0414336211911,-45.16129032258064
927.0414783659224,-48.387096774193544
928.0415231106538,-35.483870967741936
929.041567855385,-12.903225806451612
930.0416126001163,9.677419354838708
931.0416573448476,25.806451612903224
932.041702089579,35.483870967741936
933.0417468343103,38.70967741935483
934.0417915790416,64.51612903225806
935.0418363237728,77.41935483870967
936.0418810685042,64.51612903225806
937.0419258132355,35.483870967741936
938.0419705579668,9.677419354838708
939.0420153026981,-19.354838709677416
940.0420600474295,-32.25806451612903
941.0421047921607,-35.483870967741936
942.042149536892,-35.483870967741936
943.0421942816233,-51.61290322580645
944.0422390263547,-48.387096774193544
945.042283771086,-32.25806451612903
946.0423285158173,3.225806451612903
947.0423732605485,22.58064516129032
948.0424180052798,29.03225806451613
949.0424627500112,38.70967741935483
950.0425074947425,41.935483870967744
951.0425522394738,67.74193548387096
952.0425969842051,77.41935483870967
953.0426417289365,51.61290322580645
954.0426864736677,19.354838709677416
955.042731218399,-6.451612903225806
956.0427759631303,-25.806451612903224
957.0428207078617,-32.25806451612903
958.042865452593,-25.806451612903224
959.0429101973243,-41.935483870967744
960.0429549420555,-58.06451612903226
961.0429996867869,-38.70967741935483
962.0430444315182,-16.129032258064516
963.0430891762495,9.677419354838708
964.0431339209808,22.58064516129032
965.0431786657122,29.03225806451613
966.0432234104434,45.16129032258064
967.0432681551747,48.387096774193544
968.043312899906,74.19354838709677
969.0433576446374,67.74193548387096
970.0434023893687,38.70967741935483
971.0434471341,6.451612903225806
972.0434918788312,-12.903225806451612
973.0435366235625,-32.25806451612903
974.0435813682939,-29.03225806451613
975.0436261130252,-38.70967741935483
976.0436708577565,-48.387096774193544
977.0437156024879,-58.06451612903226
978.0437603472191,-38.70967741935483
979.0438050919504,-6.451612903225806
980.0438498366817,16.129032258064516
981.043894581413,35.483870967741936
982.0439393261444,38.70967741935483
983.0439840708757,45.16129032258064
984.0440288156069,58.06451612903226
985.0440735603382,74.19354838709677
986.0441183050696,61.29032258064516
987.0441630498009,25.806451612903224
988.0442077945322,9.677419354838708
989.0442525392635,-22.58064516129032
990.0442972839949,-32.25806451612903
991.0443420287261,-32.25806451612903
992.0443867734574,-41.935483870967744
993.0444315181887,-51.61290322580645
994.04447626292,-48.387096774193544
995.0445210076514,-22.58064516129032
996.0445657523827,3.225806451612903
997.0446104971139,16.129032258064516
998.0446552418452,35.483870967741936
999.0446999865766,38.70967741935483
1000.0447447313079,48.387096774193544
1001.0447894760392,67.74193548387096
1002.0448342207706,70.96774193548387
1003.0448789655018,45.16129032258064
1004.0449237102331,16.129032258064516
1005.0449684549644,-3.225806451612903
1006.0450131996957,-22.58064516129032
1007.0450579444271,-41.935483870967744
1008.0451026891584,-32.25806451612903
1009.0451474338896,-38.70967741935483
1010.0451921786209,-51.61290322580645
1011.0452369233523,-32.25806451612903
1012.0452816680836,-16.129032258064516
1013.0453264128149,6.451612903225806
1014.0453711575462,32.25806451612903
1015.0454159022775,38.70967741935483
1016.0454606470088,38.70967741935483
1017.0455053917401,48.387096774193544
1018.0455501364714,70.96774193548387
1019.0455948812028,64.51612903225806
1020.0456396259341,38.70967741935483
1021.0456843706653,12.903225806451612
1022.0457291153966,-16.129032258064516
1023.045773860128,-25.806451612903224
1024.0458186048593,-38.70967741935483
1025.0458633495905,-35.483870967741936
1026.045908094322,-38.70967741935483
1027.0459528390531,-54.83870967741935
1028.0459975837846,-29.03225806451613
1029.0460423285158,-6.451612903225806
1030.0460870732472,16.129032258064516
1031.0461318179784,32.25806451612903
1032.0461765627097,38.70967741935483
1033.046221307441,38.70967741935483
1034.0462660521723,61.29032258064516
1035.0463107969038,74.19354838709677
1036.046355541635,61.29032258064516
1037.0464002863662,25.806451612903224
1038.0464450310976,9.677419354838708
1039.0464897758288,-22.58064516129032
1040.0465345205603,-35.483870967741936
1041.0465792652915,-38.70967741935483
1042.046624010023,-38.70967741935483
1043.0466687547541,-45.16129032258064
1044.0467134994853,-38.70967741935483
1045.0467582442168,-29.03225806451613
1046.046802988948,3.225806451612903
1047.0468477336794,25.806451612903224
1048.0468924784107,32.25806451612903
1049.0469372231419,45.16129032258064
1050.0469819678733,51.61290322580645
1051.0470267126045,67.74193548387096
1052.047071457336,67.74193548387096
1053.0471162020672,45.16129032258064
1054.0471609467986,22.58064516129032
1055.0472056915298,-3.225806451612903
1056.047250436261,-29.03225806451613
1057.0472951809925,-41.935483870967744
1058.0473399257237,-35.483870967741936
1059.0473846704551,-41.935483870967744
1060.0474294151863,-58.06451612903226
1061.0474741599178,-38.70967741935483
1062.047518904649,-9.677419354838708
1063.0475636493802,9.677419354838708
1064.0476083941116,29.03225806451613
1065.0476531388429,38.70967741935483
1066.0476978835743,45.16129032258064
1067.0477426283055,51.61290322580645
1068.0477873730367,70.96774193548387
1069.0478321177682,61.29032258064516
1070.0478768624994,29.03225806451613
1071.0479216072308,9.677419354838708
1072.047966351962,-16.129032258064516
1073.0480110966935,-25.806451612903224
1074.0480558414247,-32.25806451612903
1075.048100586156,-35.483870967741936
1076.0481453308873,-45.16129032258064
1077.0481900756185,-51.61290322580645
1078.04823482035,-29.03225806451613
1079.0482795650812,-3.225806451612903
1080.0483243098124,22.58064516129032
1081.0483690545439,32.25806451612903
1082.048413799275,41.935483870967744
1083.0484585440065,41.935483870967744
1084.0485032887377,58.06451612903226
1085.0485480334692,67.74193548387096
1086.0485927782004,58.06451612903226
1087.0486375229316,29.03225806451613
1088.048682267663,0.0
1089.0487270123942,-22.58064516129032
1090.0487717571257,-38.70967741935483
1091.048816501857,-32.25806451612903
1092.048861246588,-38.70967741935483
1093.0489059913195,-51.61290322580645
1094.0489507360508,-48.387096774193544
1095.0489954807822,-29.03225806451613
1096.0490402255134,3.225806451612903
1097.0490849702448,12.903225806451612
1098.049129714976,38.70967741935483
1099.0491744597073,41.935483870967744
1100.0492192044387,45.16129032258064
1101.04926394917,70.96774193548387
1102.0493086939014,64.51612903225806
1103.0493534386326,48.387096774193544
1104.049398183364,22.58064516129032
1105.0494429280952,-6.451612903225806
1106.0494876728264,-16.129032258064516
1107.0495324175579,-35.483870967741936
1108.049577162289,-35.483870967741936
1109.0496219070205,-35.483870967741936
1110.0496666517517,-51.61290322580645
1111.049711396483,-35.483870967741936
1112.0497561412144,-16.129032258064516
1113.0498008859456,6.451612903225806
1114.049845630677,22.58064516129032
1115.0498903754083,32.25806451612903
1116.0499351201397,35.483870967741936
1117.049979864871,51.61290322580645
1118.0500246096021,70.96774193548387
1119.0500693543336,67.74193548387096
1120.0501140990648,38.70967741935483
1121.0501588437962,12.903225806451612
1122.0502035885274,-12.903225806451612
1123.0502483332587,-25.806451612903224
1124.05029307799,-35.483870967741936
1125.0503378227213,-38.70967741935483
1126.0503825674527,-38.70967741935483
1127.050427312184,-51.61290322580645
1128.0504720569154,-32.25806451612903
1129.0505168016466,-3.225806451612903
1130.0505615463778,16.129032258064516
1131.0506062911093,35.483870967741936
1132.0506510358405,38.70967741935483
1133.050695780572,38.70967741935483
1134.0507405253031,54.83870967741935
1135.0507852700346,70.96774193548387
1136.0508300147658,54.83870967741935
1137.050874759497,25.806451612903224
1138.0509195042284,-3.225806451612903
1139.0509642489596,-16.129032258064516
1140.051008993691,-29.03225806451613
1141.0510537384223,-38.70967741935483
1142.0510984831535,-38.70967741935483
1143.051143227885,-54.83870967741935
1144.0511879726162,-45.16129032258064
1145.0512327173476,-25.806451612903224
1146.0512774620788,0.0
1147.0513222068103,12.903225806451612
1148.0513669515415,29.03225806451613
1149.0514116962727,38.70967741935483
1150.0514564410041,51.61290322580645
1151.0515011857353,67.74193548387096
1152.0515459304668,64.51612903225806
1153.051590675198,45.16129032258064
1154.0516354199292,19.354838709677416
1155.0516801646606,-3.225806451612903
1156.0517249093919,-16.129032258064516
1157.0517696541233,-35.483870967741936
1158.0518143988545,-29.03225806451613
1159.051859143586,-38.70967741935483
1160.0519038883172,-54.83870967741935
1161.0519486330484,-35.483870967741936
1162.0519933777798,-6.451612903225806
1163.052038122511,9.677419354838708
1164.0520828672425,25.806451612903224
1165.0521276119737,38.70967741935483
1166.052172356705,38.70967741935483
1167.0522171014363,54.83870967741935
1168.0522618461675,70.96774193548387
1169.052306590899,64.51612903225806
1170.0523513356302,38.70967741935483
1171.0523960803616,16.129032258064516
1172.0524408250928,-12.903225806451612
1173.052485569824,-25.806451612903224
1174.0525303145555,-25.806451612903224
1175.0525750592867,-35.483870967741936
1176.0526198040181,-41.935483870967744
1177.0526645487494,-51.61290322580645
1178.0527092934808,-32.25806451612903
1179.052754038212,-9.677419354838708
1180.0527987829432,12.903225806451612
1181.0528435276747,29.03225806451613
1182.0528882724059,35.483870967741936
1183.0529330171373,38.70967741935483
1184.0529777618685,58.06451612903226
1185.0530225065997,64.51612903225806
1186.0530672513312,54.83870967741935
1187.0531119960624,25.806451612903224
1188.0531567407938,3.225806451612903
1189.053201485525,-16.129032258064516
1190.0532462302565,-25.806451612903224
1191.0532909749877,-22.58064516129032
1192.053335719719,-32.25806451612903
1193.0533804644504,-45.16129032258064
1194.0534252091816,-45.16129032258064
1195.053469953913,-22.58064516129032
1196.0535146986442,6.451612903225806
1197.0535594433754,19.354838709677416
1198.0536041881069,38.70967741935483
1199.053648932838,32.25806451612903
1200.0536936775695,45.16129032258064
1201.0537384223007,70.96774193548387
1202.0537831670322,67.74193548387096
1203.0538279117634,51.61290322580645
1204.0538726564946,19.354838709677416
1205.053917401226,-3.225806451612903
1206.0539621459573,-19.354838709677416
1207.0540068906887,-35.483870967741936
1208.05405163542,-35.483870967741936
1209.0540963801513,-41.935483870967744
1210.0541411248826,-54.83870967741935
1211.0541858696138,-45.16129032258064
1212.0542306143452,-12.903225806451612
1213.0542753590764,9.677419354838708
1214.0543201038079,32.25806451612903
1215.054364848539,29.03225806451613
1216.0544095932703,41.935483870967744
1217.0544543380017,51.61290322580645
1218.054499082733,67.74193548387096
1219.0545438274644,64.51612903225806
1220.0545885721956,35.483870967741936
1221.054633316927,12.903225806451612
1222.0546780616583,-9.677419354838708
1223.0547228063895,-22.58064516129032
1224.054767551121,-38.70967741935483
1225.0548122958521,-38.70967741935483
1226.0548570405836,-45.16129032258064
1227.0549017853148,-51.61290322580645
1228.054946530046,-22.58064516129032
1229.0549912747774,-3.225806451612903
1230.0550360195086,16.129032258064516
1231.05508076424,38.70967741935483
1232.0551255089713,35.483870967741936
1233.0551702537027,38.70967741935483
1234.055214998434,64.51612903225806
1235.0552597431652,67.74193548387096
1236.0553044878966,58.06451612903226
1237.0553492326278,19.354838709677416
1238.0553939773592,9.677419354838708
1239.0554387220905,-22.58064516129032
1240.0554834668217,-35.483870967741936
1241.055528211553,-35.483870967741936
1242.0555729562843,-38.70967741935483
1243.0556177010158,-45.16129032258064
1244.055662445747,-45.16129032258064
1245.0557071904784,-19.354838709677416
1246.0557519352096,3.225806451612903
1247.0557966799408,19.354838709677416
1248.0558414246723,38.70967741935483
1249.0558861694035,32.25806451612903
1250.055930914135,41.935483870967744
1251.0559756588661,74.19354838709677
1252.0560204035976,64.51612903225806
1253.0560651483288,45.16129032258064
1254.05610989306,6.451612903225806
1255.0561546377915,0.0
1256.0561993825227,-22.58064516129032
1257.056244127254,-35.483870967741936
1258.0562888719853,-35.483870967741936
1259.0563336167165,-38.70967741935483
1260.056378361448,-58.06451612903226
1261.0564231061792,-38.70967741935483
1262.0564678509106,-9.677419354838708
1263.0565125956418,16.129032258064516
1264.0565573403733,32.25806451612903
1265.0566020851045,38.70967741935483
1266.0566468298357,29.03225806451613
1267.0566915745671,51.61290322580645
1268.0567363192984,74.19354838709677
1269.0567810640298,67.74193548387096
1270.056825808761,35.483870967741936
1271.0568705534922,12.903225806451612
1272.0569152982237,-19.354838709677416
1273.0569600429549,-35.483870967741936
1274.0570047876863,-38.70967741935483
1275.0570495324175,-38.70967741935483
1276.057094277149,-41.935483870967744
1277.0571390218802,-58.06451612903226
1278.0571837666114,-25.806451612903224
1279.0572285113428,-3.225806451612903
1280.057273256074,9.677419354838708
1281.0573180008055,29.03225806451613
1282.0573627455367,45.16129032258064
1283.0574074902681,41.935483870967744
1284.0574522349993,67.74193548387096
1285.0574969797306,70.96774193548387
1286.057541724462,54.83870967741935
1287.0575864691932,29.03225806451613
1288.0576312139247,3.225806451612903
1289.0576759586559,-25.806451612903224
1290.057720703387,-32.25806451612903
1291.0577654481185,-29.03225806451613
1292.0578101928497,-41.935483870967744
1293.0578549375812,-54.83870967741935
1294.0578996823124,-45.16129032258064
1295.0579444270438,-16.129032258064516
1296.057989171775,6.451612903225806
1297.0580339165062,25.806451612903224
1298.0580786612377,32.25806451612903
1299.058123405969,35.483870967741936
1300.0581681507003,48.387096774193544
1301.0582128954316,64.51612903225806
1302.0582576401628,70.96774193548387
1303.0583023848942,45.16129032258064
1304.0583471296254,16.129032258064516
1305.0583918743569,-6.451612903225806
1306.058436619088,-19.354838709677416
1307.0584813638195,-35.483870967741936
1308.0585261085507,-29.03225806451613
1309.058570853282,-38.70967741935483
1310.0586155980134,-48.387096774193544
1311.0586603427446,-32.25806451612903
1312.058705087476,-16.129032258064516
1313.0587498322072,3.225806451612903
1314.0587945769385,19.354838709677416
1315.05883932167,29.03225806451613
1316.058884066401,38.70967741935483
1317.0589288111325,58.06451612903226
1318.0589735558638,77.41935483870967
1319.0590183005952,64.51612903225806
1320.0590630453264,32.25806451612903
1321.0591077900576,12.903225806451612
1322.059152534789,-12.903225806451612
1323.0591972795203,-25.806451612903224
1324.0592420242517,-32.25806451612903
1325.059286768983,-32.25806451612903
1326.0593315137144,-51.61290322580645
1327.0593762584456,-54.83870967741935
1328.0594210031768,-32.25806451612903
1329.0594657479082,0.0
1330.0595104926394,16.129032258064516
1331.059555237371,38.70967741935483
1332.059599982102,38.70967741935483
1333.0596447268333,41.935483870967744
1334.0596894715648,58.06451612903226
1335.059734216296,77.41935483870967
1336.0597789610274,54.83870967741935
1337.0598237057586,25.806451612903224
1338.05986845049,3.225806451612903
1339.0599131952213,-16.129032258064516
1340.0599579399525,-29.03225806451613
1341.060002684684,-29.03225806451613
1342.0600474294151,-41.935483870967744
1343.0600921741466,-54.83870967741935
1344.0601369188778,-48.387096774193544
1345.060181663609,-16.129032258064516
1346.0602264083404,3.225806451612903
1347.0602711530717,19.354838709677416
1348.060315897803,38.70967741935483
1349.0603606425343,38.70967741935483
1350.0604053872657,45.16129032258064
1351.060450131997,70.96774193548387
1352.0604948767282,67.74193548387096
1353.0605396214596,48.387096774193544
1354.0605843661908,12.903225806451612
1355.0606291109223,-9.677419354838708
1356.0606738556535,-25.806451612903224
1357.060718600385,-32.25806451612903
1358.0607633451161,-32.25806451612903
1359.0608080898473,-41.935483870967744
1360.0608528345788,-58.06451612903226
1361.06089757931,-38.70967741935483
1362.0609423240414,-12.903225806451612
1363.0609870687726,6.451612903225806
1364.0610318135039,22.58064516129032
1365.0610765582353,41.935483870967744
1366.0611213029665,38.70967741935483
1367.061166047698,54.83870967741935
1368.0612107924292,74.19354838709677
1369.0612555371606,61.29032258064516
1370.0613002818918,35.483870967741936
1371.061345026623,12.903225806451612
1372.0613897713545,-12.903225806451612
1373.0614345160857,-22.58064516129032
1374.0614792608171,-35.483870967741936
1375.0615240055483,-35.483870967741936
1376.0615687502795,-48.387096774193544
1377.061613495011,-51.61290322580645
1378.0616582397422,-32.25806451612903
1379.0617029844736,-3.225806451612903
1380.0617477292049,16.129032258064516
1381.0617924739363,32.25806451612903
1382.0618372186675,41.935483870967744
1383.0618819633987,41.935483870967744
1384.0619267081302,61.29032258064516
1385.0619714528614,67.74193548387096
1386.0620161975928,51.61290322580645
1387.062060942324,16.129032258064516
1388.0621056870552,0.0
1389.0621504317867,-16.129032258064516
1390.062195176518,-25.806451612903224
1391.0622399212493,-32.25806451612903
1392.0622846659805,-38.70967741935483
1393.062329410712,-48.387096774193544
1394.0623741554432,-51.61290322580645
1395.0624189001744,-22.58064516129032
1396.0624636449058,3.225806451612903
1397.062508389637,19.354838709677416
1398.0625531343685,38.70967741935483
1399.0625978790997,38.70967741935483
1400.0626426238312,45.16129032258064
1401.0626873685624,67.74193548387096
1402.0627321132936,61.29032258064516
1403.062776858025,45.16129032258064
1404.0628216027562,19.354838709677416
1405.0628663474877,-6.451612903225806
1406.0629110922189,-22.58064516129032
1407.06295583695,-29.03225806451613
1408.0630005816815,-32.25806451612903
1409.0630453264127,-41.935483870967744
1410.0630900711442,-48.387096774193544
1411.0631348158754,-32.25806451612903
1412.0631795606068,-9.677419354838708
1413.063224305338,9.677419354838708
1414.0632690500693,29.03225806451613
1415.0633137948007,35.483870967741936
1416.063358539532,29.03225806451613
1417.0634032842634,54.83870967741935
1418.0634480289946,67.74193548387096
1419.0634927737258,61.29032258064516
1420.0635375184572,38.70967741935483
1421.0635822631884,12.903225806451612
1422.0636270079199,-9.677419354838708
1423.063671752651,-29.03225806451613
1424.0637164973825,-32.25806451612903
1425.0637612421137,-38.70967741935483
1426.063805986845,-41.935483870967744
1427.0638507315764,-54.83870967741935
1428.0638954763076,-25.806451612903224
1429.063940221039,-3.225806451612903
1430.0639849657703,16.129032258064516
1431.0640297105017,29.03225806451613
1432.064074455233,29.03225806451613
1433.0641191999641,45.16129032258064
1434.0641639446956,54.83870967741935
1435.0642086894268,70.96774193548387
1436.0642534341582,45.16129032258064
1437.0642981788894,22.58064516129032
1438.0643429236206,-3.225806451612903
1439.064387668352,-19.354838709677416
1440.0644324130833,-25.806451612903224
1441.0644771578147,-22.58064516129032
1442.064521902546,-38.70967741935483
1443.0645666472774,-51.61290322580645
1444.0646113920086,-41.935483870967744
1445.0646561367398,-12.903225806451612
1446.0647008814713,3.225806451612903
1447.0647456262025,22.58064516129032
1448.064790370934,22.58064516129032
1449.0648351156651,32.25806451612903
1450.0648798603963,45.16129032258064
1451.0649246051278,67.74193548387096
1452.064969349859,67.74193548387096
1453.0650140945904,45.16129032258064
1454.0650588393216,19.354838709677416
1455.065103584053,-3.225806451612903
1456.0651483287843,-19.354838709677416
1457.0651930735155,-38.70967741935483
1458.065237818247,-25.806451612903224
1459.0652825629782,-38.70967741935483
1460.0653273077096,-51.61290322580645
1461.0653720524408,-35.483870967741936
1462.065416797172,-12.903225806451612
1463.0654615419035,9.677419354838708
1464.0655062866347,25.806451612903224
1465.065551031366,29.03225806451613
1466.0655957760973,35.483870967741936
1467.0656405208288,58.06451612903226
1468.06568526556,64.51612903225806
1469.0657300102912,58.06451612903226
1470.0657747550226,35.483870967741936
1471.0658194997538,9.677419354838708
1472.0658642444853,-9.677419354838708
1473.0659089892165,-25.806451612903224
1474.065953733948,-32.25806451612903
1475.0659984786791,-38.70967741935483
1476.0660432234104,-51.61290322580645
1477.0660879681418,-51.61290322580645
1478.066132712873,-19.354838709677416
1479.0661774576045,-9.677419354838708
1480.0662222023357,16.129032258064516
1481.0662669470669,32.25806451612903
1482.0663116917983,35.483870967741936
1483.0663564365295,38.70967741935483
1484.066401181261,67.74193548387096
1485.0664459259922,74.19354838709677
1486.0664906707236,58.06451612903226
1487.0665354154548,19.354838709677416
1488.066580160186,0.0
1489.0666249049175,-19.354838709677416
1490.0666696496487,-32.25806451612903
1491.0667143943801,-32.25806451612903
1492.0667591391114,-35.483870967741936
1493.0668038838426,-51.61290322580645
1494.066848628574,-45.16129032258064
1495.0668933733052,-19.354838709677416
1496.0669381180367,6.451612903225806
1497.0669828627679,19.354838709677416
1498.0670276074993,38.70967741935483
1499.0670723522305,38.70967741935483
1500.0671170969617,45.16129032258064
1501.0671618416932,70.96774193548387
1502.0672065864244,61.29032258064516
1503.0672513311558,45.16129032258064
1504.067296075887,9.677419354838708
1505.0673408206185,-6.451612903225806
1506.0673855653497,-22.58064516129032
1507.067430310081,-29.03225806451613
1508.0674750548123,-32.25806451612903
1509.0675197995436,-41.935483870967744
1510.067564544275,-48.387096774193544
1511.0676092890062,-32.25806451612903
1512.0676540337374,-9.677419354838708
1513.0676987784689,3.225806451612903
1514.0677435232,19.354838709677416
1515.0677882679315,35.483870967741936
1516.0678330126627,38.70967741935483
1517.0678777573942,51.61290322580645
1518.0679225021254,77.41935483870967
1519.0679672468566,54.83870967741935
1520.068011991588,32.25806451612903
1521.0680567363192,12.903225806451612
1522.0681014810507,-9.677419354838708
1523.068146225782,-29.03225806451613
1524.0681909705131,-29.03225806451613
1525.0682357152446,-29.03225806451613
1526.0682804599758,-41.935483870967744
1527.0683252047072,-51.61290322580645
1528.0683699494384,-29.03225806451613
1529.0684146941699,-3.225806451612903
1530.068459438901,12.903225806451612
1531.0685041836323,32.25806451612903
1532.0685489283637,35.483870967741936
1533.068593673095,41.935483870967744
1534.0686384178264,58.06451612903226
1535.0686831625576,70.96774193548387
1536.068727907289,51.61290322580645
1537.0687726520202,25.806451612903224
1538.0688173967515,3.225806451612903
1539.068862141483,-19.354838709677416
1540.068906886214,-25.806451612903224
1541.0689516309455,-29.03225806451613
1542.0689963756768,-35.483870967741936
1543.069041120408,-48.387096774193544
1544.0690858651394,-41.935483870967744
1545.0691306098706,-25.806451612903224
1546.069175354602,6.451612903225806
1547.0692200993333,25.806451612903224
1548.0692648440647,35.483870967741936
1549.069309588796,38.70967741935483
1550.0693543335271,45.16129032258064
1551.0693990782586,64.51612903225806
1552.0694438229898,61.29032258064516
1553.0694885677212,38.70967741935483
1554.0695333124524,19.354838709677416
1555.0695780571837,0.0
1556.069622801915,-22.58064516129032
1557.0696675466463,-32.25806451612903
1558.0697122913778,-29.03225806451613
1559.069757036109,-38.70967741935483
1560.0698017808404,-48.387096774193544
1561.0698465255716,-32.25806451612903
1562.0698912703028,-12.903225806451612
1563.0699360150343,12.903225806451612
1564.0699807597655,25.806451612903224
1565.070025504497,29.03225806451613
1566.0700702492281,45.16129032258064
1567.0701149939594,51.61290322580645
1568.0701597386908,67.74193548387096
1569.070204483422,64.51612903225806
1570.0702492281534,32.25806451612903
1571.0702939728847,6.451612903225806
1572.070338717616,-19.354838709677416
1573.0703834623473,-32.25806451612903
1574.0704282070785,-32.25806451612903
1575.07047295181,-32.25806451612903
1576.0705176965412,-51.61290322580645
1577.0705624412726,-48.387096774193544
1578.0706071860038,-22.58064516129032
1579.0706519307353,0.0
1580.0706966754665,12.903225806451612
1581.0707414201977,38.70967741935483
1582.0707861649291,38.70967741935483
1583.0708309096603,38.70967741935483
1584.0708756543918,58.06451612903226
1585.070920399123,67.74193548387096
1586.0709651438542,51.61290322580645
1587.0710098885856,19.354838709677416
1588.0710546333169,-3.225806451612903
1589.0710993780483,-19.354838709677416
1590.0711441227795,-25.806451612903224
1591.071188867511,-29.03225806451613
1592.0712336122422,-29.03225806451613
1593.0712783569734,-45.16129032258064
1594.0713231017048,-41.935483870967744
1595.071367846436,-22.58064516129032
1596.0714125911675,9.677419354838708
1597.0714573358987,22.58064516129032
1598.07150208063,38.70967741935483
1599.0715468253613,38.70967741935483
1600.0715915700926,45.16129032258064
1601.071636314824,61.29032258064516
1602.0716810595552,64.51612903225806
1603.0717258042866,38.70967741935483
1604.0717705490179,16.129032258064516
1605.071815293749,-6.451612903225806
1606.0718600384805,-22.58064516129032
1607.0719047832117,-35.483870967741936
1608.0719495279432,-32.25806451612903
1609.0719942726744,-38.70967741935483
1610.0720390174058,-51.61290322580645
1611.072083762137,-35.483870967741936
1612.0721285068682,-9.677419354838708
1613.0721732515997,12.903225806451612
1614.072217996331,25.806451612903224
1615.0722627410623,32.25806451612903
1616.0723074857935,38.70967741935483
1617.0723522305248,54.83870967741935
1618.0723969752562,67.74193548387096
1619.0724417199874,58.06451612903226
1620.0724864647188,38.70967741935483
1621.07253120945,12.903225806451612
1622.0725759541815,-9.677419354838708
1623.0726206989127,-32.25806451612903
1624.072665443644,-38.70967741935483
1625.0727101883754,-29.03225806451613
1626.0727549331066,-41.935483870967744
1627.072799677838,-54.83870967741935
1628.0728444225692,-22.58064516129032
1629.0728891673004,0.0
1630.0729339120319,16.129032258064516
1631.072978656763,32.25806451612903
1632.0730234014945,38.70967741935483
1633.0730681462258,38.70967741935483
1634.0731128909572,64.51612903225806
1635.0731576356884,70.96774193548387
1636.0732023804196,51.61290322580645
1637.073247125151,25.806451612903224
1638.0732918698823,0.0
1639.0733366146137,-25.806451612903224
1640.073381359345,-32.25806451612903
1641.0734261040761,-32.25806451612903
1642.0734708488076,-35.483870967741936
1643.0735155935388,-48.387096774193544
1644.0735603382702,-41.935483870967744
1645.0736050830014,-22.58064516129032
1646.0736498277329,9.677419354838708
1647.073694572464,19.354838709677416
1648.0737393171953,35.483870967741936
1649.0737840619267,45.16129032258064
1650.073828806658,45.16129032258064
1651.0738735513894,64.51612903225806
1652.0739182961206,64.51612903225806
1653.073963040852,41.935483870967744
1654.0740077855833,12.903225806451612
1655.0740525303145,-6.451612903225806
1656.074097275046,-16.129032258064516
1657.0741420197771,-35.483870967741936
1658.0741867645086,-29.03225806451613
1659.0742315092398,-35.483870967741936
1660.074276253971,-45.16129032258064
1661.0743209987024,-29.03225806451613
1662.0743657434336,-16.129032258064516
1663.074410488165,16.129032258064516
1664.0744552328963,25.806451612903224
1665.0744999776277,35.483870967741936
1666.074544722359,32.25806451612903
1667.0745894670902,51.61290322580645
1668.0746342118216,67.74193548387096
1669.0746789565528,61.29032258064516
1670.0747237012843,32.25806451612903
1671.0747684460155,12.903225806451612
1672.0748131907467,-12.903225806451612
1673.0748579354781,-22.58064516129032
1674.0749026802093,-35.483870967741936
1675.0749474249408,-35.483870967741936
1676.074992169672,-41.935483870967744
1677.0750369144034,-45.16129032258064
1678.0750816591346,-25.806451612903224
1679.0751264038659,-3.225806451612903
1680.0751711485973,12.903225806451612
1681.0752158933285,25.806451612903224
1682.07526063806,29.03225806451613
1683.0753053827912,45.16129032258064
1684.0753501275226,51.61290322580645
1685.0753948722538,67.74193548387096
1686.075439616985,45.16129032258064
1687.0754843617165,29.03225806451613
1688.0755291064477,3.225806451612903
1689.0755738511791,-12.903225806451612
1690.0756185959103,-25.806451612903224
1691.0756633406415,-25.806451612903224
1692.075708085373,-35.483870967741936
1693.0757528301042,-45.16129032258064
1694.0757975748356,-41.935483870967744
1695.0758423195668,-16.129032258064516
1696.0758870642983,6.451612903225806
1697.0759318090295,12.903225806451612
1698.0759765537607,32.25806451612903
1699.0760212984922,35.483870967741936
1700.0760660432234,38.70967741935483
1701.0761107879548,67.74193548387096
1702.076155532686,64.51612903225806
1703.0762002774172,45.16129032258064
1704.0762450221487,12.903225806451612
1705.0762897668799,-3.225806451612903
1706.0763345116113,-16.129032258064516
1707.0763792563425,-29.03225806451613
1708.076424001074,-32.25806451612903
1709.0764687458052,-38.70967741935483
1710.0765134905364,-51.61290322580645
1711.0765582352678,-35.483870967741936
1712.076602979999,-9.677419354838708
1713.0766477247305,12.903225806451612
1714.0766924694617,29.03225806451613
1715.076737214193,35.483870967741936
1716.0767819589244,35.483870967741936
1717.0768267036556,41.935483870967744
1718.076871448387,64.51612903225806
1719.0769161931182,58.06451612903226
1720.0769609378497,32.25806451612903
1721.0770056825809,12.903225806451612
1722.077050427312,-19.354838709677416
1723.0770951720435,-25.806451612903224
1724.0771399167747,-29.03225806451613
1725.0771846615062,-25.806451612903224
1726.0772294062374,-38.70967741935483
1727.0772741509688,-41.935483870967744
1728.0773188957,-22.58064516129032
1729.0773636404313,-6.451612903225806
1730.0774083851627,19.354838709677416
1731.077453129894,29.03225806451613
1732.0774978746254,35.483870967741936
1733.0775426193566,38.70967741935483
1734.0775873640878,61.29032258064516
1735.0776321088192,74.19354838709677
1736.0776768535504,48.387096774193544
1737.0777215982819,22.58064516129032
1738.077766343013,0.0
1739.0778110877445,-29.03225806451613
1740.0778558324757,-32.25806451612903
1741.077900577207,-35.483870967741936
1742.0779453219384,-35.483870967741936
1743.0779900666696,-48.387096774193544
1744.078034811401,-38.70967741935483
1745.0780795561323,-16.129032258064516
1746.0781243008635,9.677419354838708
1747.078169045595,16.129032258064516
1748.0782137903261,35.483870967741936
1749.0782585350576,35.483870967741936
1750.0783032797888,45.16129032258064
1751.0783480245202,67.74193548387096
1752.0783927692514,61.29032258064516
1753.0784375139826,35.483870967741936
1754.078482258714,16.129032258064516
1755.0785270034453,-9.677419354838708
1756.0785717481767,-22.58064516129032
1757.078616492908,-32.25806451612903
1758.0786612376394,-25.806451612903224
1759.0787059823706,-32.25806451612903
1760.0787507271018,-48.387096774193544
1761.0787954718332,-35.483870967741936
1762.0788402165645,-3.225806451612903
1763.078884961296,16.129032258064516
1764.078929706027,22.58064516129032
1765.0789744507583,32.25806451612903
1766.0790191954898,38.70967741935483
1767.079063940221,51.61290322580645
1768.0791086849524,67.74193548387096
1769.0791534296836,54.83870967741935
1770.079198174415,29.03225806451613
1771.0792429191463,12.903225806451612
1772.0792876638775,-12.903225806451612
1773.079332408609,-25.806451612903224
1774.0793771533401,-29.03225806451613
1775.0794218980716,-29.03225806451613
1776.0794666428028,-48.387096774193544
1777.079511387534,-41.935483870967744
1778.0795561322655,-19.354838709677416
1779.0796008769967,0.0
1780.079645621728,12.903225806451612
1781.0796903664593,35.483870967741936
1782.0797351111908,35.483870967741936
1783.079779855922,38.70967741935483
1784.0798246006532,58.06451612903226
1785.0798693453846,67.74193548387096
1786.0799140901158,45.16129032258064
1787.0799588348473,25.806451612903224
1788.0800035795785,3.225806451612903
1789.0800483243097,-12.903225806451612
1790.0800930690411,-32.25806451612903
1791.0801378137724,-32.25806451612903
1792.0801825585038,-35.483870967741936
1793.080227303235,-45.16129032258064
1794.0802720479664,-38.70967741935483
1795.0803167926977,-19.354838709677416
1796.0803615374289,9.677419354838708
1797.0804062821603,16.129032258064516
1798.0804510268915,29.03225806451613
1799.080495771623,41.935483870967744
1800.0805405163542,38.70967741935483
1801.0805852610856,64.51612903225806
1802.0806300058168,64.51612903225806
1803.080674750548,38.70967741935483
1804.0807194952795,16.129032258064516
1805.0807642400107,-6.451612903225806
1806.0808089847421,-19.354838709677416
1807.0808537294733,-25.806451612903224
1808.0808984742046,-25.806451612903224
1809.080943218936,-38.70967741935483
1810.0809879636672,-48.387096774193544
1811.0810327083987,-25.806451612903224
1812.0810774531299,-6.451612903225806
1813.0811221978613,16.129032258064516
1814.0811669425925,32.25806451612903
1815.0812116873237,35.483870967741936
1816.0812564320552,38.70967741935483
1817.0813011767864,51.61290322580645
1818.0813459215178,61.29032258064516
1819.081390666249,54.83870967741935
1820.0814354109802,25.806451612903224
1821.0814801557117,12.903225806451612
1822.081524900443,-22.58064516129032
1823.0815696451743,-29.03225806451613
1824.0816143899056,-38.70967741935483
1825.081659134637,-25.806451612903224
1826.0817038793682,-45.16129032258064
1827.0817486240994,-51.61290322580645
1828.0817933688309,-22.58064516129032
1829.081838113562,-6.451612903225806
1830.0818828582935,19.354838709677416
1831.0819276030247,32.25806451612903
1832.0819723477562,32.25806451612903
1833.0820170924874,41.935483870967744
1834.0820618372186,58.06451612903226
1835.08210658195,70.96774193548387
1836.0821513266812,58.06451612903226
1837.0821960714127,22.58064516129032
1838.082240816144,0.0
1839.082285560875,-16.129032258064516
1840.0823303056065,-25.806451612903224
1841.0823750503378,-29.03225806451613
1842.0824197950692,-41.935483870967744
1843.0824645398004,-48.387096774193544
1844.0825092845319,-38.70967741935483
1845.082554029263,-12.903225806451612
1846.0825987739943,9.677419354838708
1847.0826435187257,22.58064516129032
1848.082688263457,29.03225806451613
1849.0827330081884,38.70967741935483
1850.0827777529196,41.935483870967744
1851.0828224976508,61.29032258064516
1852.0828672423822,64.51612903225806
1853.0829119871134,32.25806451612903
1854.082956731845,16.129032258064516
1855.083001476576,-9.677419354838708
1856.0830462213075,-19.354838709677416
1857.0830909660388,-29.03225806451613
1858.08313571077,-32.25806451612903
1859.0831804555014,-41.935483870967744
1860.0832252002326,-54.83870967741935
1861.083269944964,-22.58064516129032
1862.0833146896953,-3.225806451612903
1863.0833594344265,12.903225806451612
1864.083404179158,25.806451612903224
1865.0834489238891,35.483870967741936
1866.0834936686206,35.483870967741936
1867.0835384133518,51.61290322580645
1868.0835831580832,67.74193548387096
1869.0836279028144,58.06451612903226
1870.0836726475457,29.03225806451613
1871.083717392277,12.903225806451612
1872.0837621370083,-12.903225806451612
1873.0838068817397,-25.806451612903224
1874.083851626471,-35.483870967741936
1875.0838963712024,-35.483870967741936
1876.0839411159336,-45.16129032258064
1877.0839858606648,-48.387096774193544
1878.0840306053963,-22.58064516129032
1879.0840753501275,-3.225806451612903
1880.084120094859,19.354838709677416
1881.0841648395901,35.483870967741936
1882.0842095843213,29.03225806451613
1883.0842543290528,35.483870967741936
1884.084299073784,64.51612903225806
1885.0843438185154,70.96774193548387
1886.0843885632466,51.61290322580645
1887.084433307978,19.354838709677416
1888.0844780527093,0.0
1889.0845227974405,-22.58064516129032
1890.084567542172,-22.58064516129032
1891.0846122869032,-32.25806451612903
1892.0846570316346,-35.483870967741936
1893.0847017763658,-51.61290322580645
1894.084746521097,-38.70967741935483
1895.0847912658285,-12.903225806451612
1896.0848360105597,9.677419354838708
1897.0848807552911,19.354838709677416
1898.0849255000223,35.483870967741936
1899.0849702447538,35.483870967741936
1900.085014989485,45.16129032258064
1901.0850597342162,67.74193548387096
1902.0851044789476,64.51612903225806
1903.0851492236789,35.483870967741936
1904.0851939684103,19.354838709677416
1905.0852387131415,-9.677419354838708
1906.085283457873,-22.58064516129032
1907.0853282026042,-32.25806451612903
1908.0853729473354,-35.483870967741936
1909.0854176920668,-35.483870967741936
1910.085462436798,-48.387096774193544
1911.0855071815295,-32.25806451612903
1912.0855519262607,-6.451612903225806
1913.085596670992,9.677419354838708
1914.0856414157233,29.03225806451613
1915.0856861604545,35.483870967741936
1916.085730905186,29.03225806451613
1917.0857756499172,58.06451612903226
1918.0858203946486,64.51612903225806
1919.0858651393798,54.83870967741935
1920.085909884111,32.25806451612903
1921.0859546288425,12.903225806451612
1922.0859993735737,-19.354838709677416
1923.0860441183052,-16.129032258064516
1924.0860888630364,-32.25806451612903
1925.0861336077676,-29.03225806451613
1926.086178352499,-41.935483870967744
1927.0862230972302,-48.387096774193544
1928.0862678419617,-32.25806451612903
1929.0863125866929,-3.225806451612903
1930.0863573314243,9.677419354838708
1931.0864020761555,32.25806451612903
1932.0864468208867,35.483870967741936
1933.0864915656182,41.935483870967744
1934.0865363103494,58.06451612903226
1935.0865810550808,67.74193548387096
1936.086625799812,45.16129032258064
1937.0866705445433,25.806451612903224
1938.0867152892747,3.225806451612903
1939.086760034006,-22.58064516129032
1940.0868047787374,-25.806451612903224
1941.0868495234686,-25.806451612903224
1942.0868942682,-35.483870967741936
1943.0869390129312,-48.387096774193544
1944.0869837576624,-38.70967741935483
1945.0870285023939,-12.903225806451612
1946.087073247125,9.677419354838708
1947.0871179918565,16.129032258064516
1948.0871627365877,25.806451612903224
1949.0872074813192,32.25806451612903
1950.0872522260504,38.70967741935483
1951.0872969707816,64.51612903225806
1952.087341715513,64.51612903225806
1953.0873864602443,38.70967741935483
1954.0874312049757,12.903225806451612
1955.087475949707,-9.677419354838708
1956.0875206944381,-19.354838709677416
1957.0875654391696,-32.25806451612903
1958.0876101839008,-32.25806451612903
1959.0876549286322,-38.70967741935483
1960.0876996733634,-45.16129032258064
1961.0877444180949,-29.03225806451613
1962.087789162826,-6.451612903225806
1963.0878339075573,9.677419354838708
1964.0878786522887,22.58064516129032
1965.08792339702,35.483870967741936
1966.0879681417514,41.935483870967744
1967.0880128864826,51.61290322580645
1968.0880576312138,61.29032258064516
1969.0881023759453,51.61290322580645
1970.0881471206765,32.25806451612903
1971.088191865408,9.677419354838708
1972.0882366101391,-12.903225806451612
1973.0882813548706,-29.03225806451613
1974.0883260996018,-29.03225806451613
1975.088370844333,-29.03225806451613
1976.0884155890644,-35.483870967741936
1977.0884603337956,-48.387096774193544
1978.088505078527,-29.03225806451613
1979.0885498232583,-3.225806451612903
1980.0885945679897,22.58064516129032
1981.088639312721,35.483870967741936
1982.0886840574522,32.25806451612903
1983.0887288021836,38.70967741935483
1984.0887735469148,64.51612903225806
1985.0888182916462,70.96774193548387
1986.0888630363775,51.61290322580645
1987.0889077811087,25.806451612903224
1988.08895252584,6.451612903225806
1989.0889972705713,-19.354838709677416
1990.0890420153028,-25.806451612903224
1991.089086760034,-32.25806451612903
1992.0891315047654,-41.935483870967744
1993.0891762494966,-51.61290322580645
1994.0892209942278,-45.16129032258064
1995.0892657389593,-19.354838709677416
1996.0893104836905,12.903225806451612
1997.089355228422,16.129032258064516
1998.0893999731531,29.03225806451613
1999.0894447178844,35.483870967741936
2000.0894894626158,48.387096774193544
2001.089534207347,64.51612903225806
2002.0895789520785,64.51612903225806
2003.0896236968097,38.70967741935483
2004.089668441541,12.903225806451612
2005.0897131862723,-6.451612903225806
2006.0897579310035,-19.354838709677416
2007.089802675735,-38.70967741935483
2008.0898474204662,-32.25806451612903
2009.0898921651976,-41.935483870967744
2010.0899369099288,-48.387096774193544
2011.08998165466,-29.03225806451613
2012.0900263993915,-9.677419354838708
2013.0900711441227,9.677419354838708
2014.0901158888541,32.25806451612903
2015.0901606335854,35.483870967741936
2016.0902053783168,38.70967741935483
2017.090250123048,51.61290322580645
2018.0902948677792,70.96774193548387
2019.0903396125107,58.06451612903226
2020.0903843572419,32.25806451612903
2021.0904291019733,9.677419354838708
2022.0904738467045,-12.903225806451612
2023.090518591436,-29.03225806451613
2024.0905633361672,-35.483870967741936
2025.0906080808984,-29.03225806451613
2026.0906528256298,-41.935483870967744
2027.090697570361,-48.387096774193544
2028.0907423150925,-19.354838709677416
2029.0907870598237,3.225806451612903
2030.090831804555,19.354838709677416
2031.0908765492863,32.25806451612903
2032.0909212940176,38.70967741935483
2033.090966038749,38.70967741935483
2034.0910107834802,58.06451612903226
2035.0910555282117,67.74193548387096
2036.0911002729429,41.935483870967744
2037.091145017674,12.903225806451612
2038.0911897624055,3.225806451612903
2039.0912345071367,-19.354838709677416
2040.0912792518682,-25.806451612903224
2041.0913239965994,-32.25806451612903
2042.0913687413306,-41.935483870967744
2043.091413486062,-45.16129032258064
2044.0914582307933,-35.483870967741936
2045.0915029755247,-19.354838709677416
2046.091547720256,9.677419354838708
2047.0915924649873,19.354838709677416
2048.0916372097186,38.70967741935483
2049.09168195445,32.25806451612903
2050.091726699181,45.16129032258064
2051.0917714439124,58.06451612903226
2052.091816188644,61.29032258064516
2053.0918609333753,35.483870967741936
2054.0919056781063,12.903225806451612
2055.0919504228377,-9.677419354838708
2056.091995167569,-25.806451612903224
2057.0920399123,-22.58064516129032
2058.0920846570316,-29.03225806451613
2059.092129401763,-41.935483870967744
2060.0921741464945,-45.16129032258064
2061.0922188912255,-29.03225806451613
2062.092263635957,-6.451612903225806
2063.0923083806883,9.677419354838708
2064.0923531254193,25.806451612903224
2065.0923978701508,32.25806451612903
2066.092442614882,29.03225806451613
2067.092487359613,51.61290322580645
2068.0925321043446,70.96774193548387
2069.092576849076,51.61290322580645
2070.0926215938075,25.806451612903224
2071.0926663385385,9.677419354838708
2072.09271108327,-9.677419354838708
2073.0927558280014,-25.806451612903224
2074.0928005727324,-29.03225806451613
2075.092845317464,-29.03225806451613
2076.0928900621952,-38.70967741935483
2077.0929348069267,-38.70967741935483
2078.0929795516577,-12.903225806451612
2079.093024296389,-9.677419354838708
2080.0930690411205,19.354838709677416
2081.0931137858515,35.483870967741936
2082.093158530583,29.03225806451613
2083.0932032753144,38.70967741935483
2084.093248020046,61.29032258064516
2085.093292764777,64.51612903225806
2086.0933375095083,48.387096774193544
2087.0933822542397,22.58064516129032
2088.0934269989707,3.225806451612903
2089.093471743702,-22.58064516129032
2090.0935164884336,-25.806451612903224
2091.093561233165,-25.806451612903224
2092.093605977896,-38.70967741935483
2093.0936507226274,-48.387096774193544
2094.093695467359,-32.25806451612903
2095.09374021209,-19.354838709677416
2096.0937849568213,3.225806451612903
2097.0938297015527,16.129032258064516
2098.0938744462837,32.25806451612903
2099.093919191015,35.483870967741936
2100.0939639357466,38.70967741935483
2101.094008680478,58.06451612903226
2102.094053425209,58.06451612903226
2103.0940981699405,45.16129032258064
2104.094142914672,16.129032258064516
2105.094187659403,-12.903225806451612
2106.0942324041343,-16.129032258064516
2107.094277148866,-25.806451612903224
2108.094321893597,-29.03225806451613
2109.094366638328,-41.935483870967744
2110.0944113830597,-48.387096774193544
2111.094456127791,-25.806451612903224
2112.094500872522,-12.903225806451612
2113.0945456172535,16.129032258064516
2114.094590361985,25.806451612903224
2115.0946351067164,29.03225806451613
2116.0946798514474,38.70967741935483
2117.094724596179,41.935483870967744
2118.0947693409103,67.74193548387096
2119.0948140856412,54.83870967741935
2120.0948588303727,22.58064516129032
2121.094903575104,12.903225806451612
2122.0949483198356,-16.129032258064516
2123.0949930645666,-22.58064516129032
2124.095037809298,-25.806451612903224
2125.0950825540294,-22.58064516129032
2126.0951272987604,-45.16129032258064
2127.095172043492,-35.483870967741936
2128.0952167882233,-22.58064516129032
2129.0952615329543,3.225806451612903
2130.0953062776857,16.129032258064516
2131.095351022417,29.03225806451613
2132.0953957671486,25.806451612903224
2133.0954405118796,38.70967741935483
2134.095485256611,58.06451612903226
2135.0955300013425,64.51612903225806
2136.0955747460735,51.61290322580645
2137.095619490805,19.354838709677416
2138.0956642355363,-3.225806451612903
2139.095708980268,-19.354838709677416
2140.0957537249988,-29.03225806451613
2141.09579846973,-25.806451612903224
2142.0958432144616,-41.935483870967744
2143.0958879591926,-51.61290322580645
2144.095932703924,-35.483870967741936
2145.0959774486555,-12.903225806451612
2146.096022193387,9.677419354838708
2147.096066938118,22.58064516129032
2148.0961116828494,29.03225806451613
2149.096156427581,32.25806451612903
2150.096201172312,45.16129032258064
2151.0962459170432,67.74193548387096
2152.0962906617747,64.51612903225806
2153.0963354065057,35.483870967741936
2154.096380151237,16.129032258064516
2155.0964248959685,-12.903225806451612
2156.0964696407,-16.129032258064516
2157.096514385431,-35.483870967741936
2158.0965591301624,-29.03225806451613
2159.096603874894,-38.70967741935483
2160.096648619625,-48.387096774193544
2161.0966933643563,-29.03225806451613
2162.0967381090877,-9.677419354838708
2163.096782853819,16.129032258064516
2164.09682759855,25.806451612903224
2165.0968723432816,35.483870967741936
2166.096917088013,41.935483870967744
2167.096961832744,48.387096774193544
2168.0970065774754,70.96774193548387
2169.097051322207,54.83870967741935
2170.0970960669383,29.03225806451613
2171.0971408116693,3.225806451612903
2172.0971855564007,-9.677419354838708
2173.097230301132,-25.806451612903224
2174.097275045863,-29.03225806451613
2175.0973197905946,-32.25806451612903
2176.097364535326,-41.935483870967744
2177.0974092800575,-45.16129032258064
2178.0974540247885,-29.03225806451613
2179.09749876952,-6.451612903225806
2180.0975435142514,12.903225806451612
2181.0975882589823,29.03225806451613
2182.097633003714,32.25806451612903
2183.097677748445,41.935483870967744
2184.097722493176,64.51612903225806
2185.0977672379076,70.96774193548387
2186.097811982639,54.83870967741935
2187.0978567273705,16.129032258064516
2188.0979014721015,3.225806451612903
2189.097946216833,-25.806451612903224
2190.0979909615644,-35.483870967741936
2191.0980357062954,-35.483870967741936
2192.098080451027,-38.70967741935483
2193.0981251957583,-51.61290322580645
2194.0981699404897,-35.483870967741936
2195.0982146852207,-12.903225806451612
2196.098259429952,12.903225806451612
2197.0983041746836,16.129032258064516
2198.0983489194145,29.03225806451613
2199.098393664146,35.483870967741936
2200.0984384088774,48.387096774193544
2201.098483153609,64.51612903225806
2202.09852789834,54.83870967741935
2203.0985726430713,41.935483870967744
2204.0986173878027,12.903225806451612
2205.0986621325337,-9.677419354838708
2206.098706877265,-19.354838709677416
2207.0987516219966,-32.25806451612903
2208.098796366728,-38.70967741935483
2209.098841111459,-41.935483870967744
2210.0988858561905,-48.387096774193544
2211.098930600922,-22.58064516129032
2212.098975345653,-6.451612903225806
2213.0990200903843,12.903225806451612
2214.0990648351158,25.806451612903224
2215.0991095798468,35.483870967741936
2216.099154324578,35.483870967741936
2217.0991990693096,51.61290322580645
2218.099243814041,74.19354838709677
2219.099288558772,54.83870967741935
2220.0993333035035,32.25806451612903
2221.099378048235,6.451612903225806
2222.099422792966,-16.129032258064516
2223.0994675376974,-25.806451612903224
2224.099512282429,-32.25806451612903
2225.0995570271602,-32.25806451612903
2226.0996017718912,-48.387096774193544
2227.0996465166227,-48.387096774193544
2228.099691261354,-16.129032258064516
2229.099736006085,3.225806451612903
2230.0997807508165,22.58064516129032
2231.099825495548,38.70967741935483
2232.0998702402794,35.483870967741936
2233.0999149850104,38.70967741935483
2234.099959729742,61.29032258064516
2235.1000044744733,67.74193548387096
2236.1000492192043,45.16129032258064
2237.1000939639357,12.903225806451612
2238.100138708667,3.225806451612903
2239.1001834533986,-22.58064516129032
2240.1002281981296,-25.806451612903224
2241.100272942861,-25.806451612903224
2242.1003176875925,-35.483870967741936
2243.1003624323234,-48.387096774193544
2244.100407177055,-35.483870967741936
2245.1004519217863,-16.129032258064516
2246.1004966665173,9.677419354838708
2247.1005414112487,12.903225806451612
2248.10058615598,35.483870967741936
2249.1006309007116,38.70967741935483
2250.1006756454426,51.61290322580645
2251.100720390174,67.74193548387096
2252.1007651349055,58.06451612903226
2253.1008098796365,38.70967741935483
2254.100854624368,16.129032258064516
2255.1008993690994,-6.451612903225806
2256.100944113831,-22.58064516129032
2257.100988858562,-32.25806451612903
2258.101033603293,-32.25806451612903
2259.1010783480247,-38.70967741935483
2260.1011230927556,-45.16129032258064
2261.101167837487,-29.03225806451613
2262.1012125822185,0.0
2263.10125732695,9.677419354838708
2264.101302071681,22.58064516129032
2265.1013468164124,32.25806451612903
2266.101391561144,35.483870967741936
2267.101436305875,54.83870967741935
2268.1014810506063,67.74193548387096
2269.1015257953377,51.61290322580645
2270.101570540069,25.806451612903224
2271.1016152848,6.451612903225806
2272.1016600295316,-12.903225806451612
2273.101704774263,-25.806451612903224
2274.101749518994,-32.25806451612903
2275.1017942637254,-32.25806451612903
2276.101839008457,-41.935483870967744
2277.101883753188,-41.935483870967744
2278.1019284979193,-9.677419354838708
2279.1019732426507,6.451612903225806
2280.102017987382,16.129032258064516
2281.102062732113,35.483870967741936
2282.1021074768446,38.70967741935483
2283.102152221576,45.16129032258064
2284.102196966307,54.83870967741935
2285.1022417110385,67.74193548387096
2286.10228645577,41.935483870967744
2287.1023312005013,16.129032258064516
2288.1023759452323,0.0
2289.1024206899638,-22.58064516129032
2290.102465434695,-29.03225806451613
2291.102510179426,-29.03225806451613
2292.1025549241576,-32.25806451612903
2293.102599668889,-48.387096774193544
2294.1026444136205,-41.935483870967744
2295.1026891583515,-19.354838709677416
2296.102733903083,9.677419354838708
2297.1027786478144,19.354838709677416
2298.1028233925454,35.483870967741936
2299.102868137277,35.483870967741936
2300.1029128820082,41.935483870967744
2301.102957626739,64.51612903225806
2302.1030023714707,58.06451612903226
2303.103047116202,32.25806451612903
2304.1030918609335,16.129032258064516
2305.1031366056645,-6.451612903225806
2306.103181350396,-19.354838709677416
2307.1032260951274,-12.903225806451612
2308.1032708398584,-19.354838709677416
2309.10331558459,-29.03225806451613
2310.1033603293213,-32.25806451612903
2311.1034050740527,-12.903225806451612
2312.1034498187837,-9.677419354838708
2313.103494563515,-6.451612903225806
2314.1035393082466,3.225806451612903
2315.1035840529776,12.903225806451612
2316.103628797709,16.129032258064516
2317.1036735424404,48.387096774193544
2318.103718287172,67.74193548387096
2319.103763031903,54.83870967741935
2320.1038077766343,19.354838709677416
2321.1038525213658,16.129032258064516
2322.1038972660967,-9.677419354838708
2323.103942010828,-19.354838709677416
2324.1039867555596,-25.806451612903224
2325.104031500291,-32.25806451612903
2326.104076245022,-38.70967741935483
2327.1041209897535,-38.70967741935483
2328.104165734485,-9.677419354838708
2329.104210479216,3.225806451612903
2330.1042552239473,19.354838709677416
2331.104299968679,29.03225806451613
2332.10434471341,29.03225806451613
2333.104389458141,41.935483870967744
2334.1044342028727,58.06451612903226
2335.104478947604,64.51612903225806
2336.104523692335,48.387096774193544
2337.1045684370665,25.806451612903224
2338.104613181798,0.0
2339.104657926529,-19.354838709677416
2340.1047026712604,-35.483870967741936
2341.104747415992,-29.03225806451613
2342.1047921607233,-35.483870967741936
2343.1048369054542,-45.16129032258064
2344.1048816501857,-32.25806451612903
2345.104926394917,-12.903225806451612
2346.104971139648,9.677419354838708
2347.1050158843796,22.58064516129032
2348.105060629111,35.483870967741936
2349.1051053738424,35.483870967741936
2350.1051501185734,38.70967741935483
2351.105194863305,67.74193548387096
2352.1052396080363,61.29032258064516
2353.1052843527673,35.483870967741936
2354.1053290974987,9.677419354838708
2355.10537384223,-9.677419354838708
2356.1054185869616,-22.58064516129032
2357.1054633316926,-25.806451612903224
2358.105508076424,-32.25806451612903
2359.1055528211555,-41.935483870967744
2360.1055975658865,-48.387096774193544
2361.105642310618,-19.354838709677416
2362.1056870553493,-6.451612903225806
2363.1057318000803,16.129032258064516
2364.1057765448118,25.806451612903224
2365.105821289543,35.483870967741936
2366.1058660342746,38.70967741935483
2367.1059107790056,51.61290322580645
2368.105955523737,67.74193548387096
2369.1060002684685,51.61290322580645
2370.1060450131995,25.806451612903224
2371.106089757931,3.225806451612903
2372.1061345026624,-22.58064516129032
2373.106179247394,-29.03225806451613
2374.106223992125,-29.03225806451613
2375.1062687368562,-35.483870967741936
2376.1063134815877,-41.935483870967744
2377.1063582263187,-45.16129032258064
2378.10640297105,-12.903225806451612
2379.1064477157815,0.0
2380.106492460513,16.129032258064516
2381.106537205244,25.806451612903224
2382.1065819499754,35.483870967741936
2383.106626694707,41.935483870967744
2384.106671439438,58.06451612903226
2385.1067161841693,67.74193548387096
2386.1067609289007,41.935483870967744
2387.106805673632,12.903225806451612
2388.106850418363,-3.225806451612903
2389.1068951630946,-22.58064516129032
2390.106939907826,-25.806451612903224
2391.106984652557,-22.58064516129032
2392.1070293972884,-35.483870967741936
2393.10707414202,-41.935483870967744
2394.107118886751,-35.483870967741936
2395.1071636314823,-9.677419354838708
2396.1072083762137,6.451612903225806
2397.107253120945,19.354838709677416
2398.107297865676,32.25806451612903
2399.1073426104076,32.25806451612903
2400.107387355139,41.935483870967744
2401.10743209987,64.51612903225806
2402.1074768446015,54.83870967741935
2403.107521589333,29.03225806451613
2404.1075663340644,9.677419354838708
2405.1076110787953,-6.451612903225806
2406.107655823527,-29.03225806451613
2407.107700568258,-35.483870967741936
2408.107745312989,-35.483870967741936
2409.1077900577206,-48.387096774193544
2410.107834802452,-48.387096774193544
2411.1078795471835,-22.58064516129032
2412.1079242919145,-3.225806451612903
2413.107969036646,16.129032258064516
2414.1080137813774,29.03225806451613
2415.1080585261084,32.25806451612903
2416.10810327084,38.70967741935483
2417.1081480155713,51.61290322580645
2418.1081927603027,64.51612903225806
2419.1082375050337,61.29032258064516
2420.108282249765,25.806451612903224
2421.1083269944966,6.451612903225806
2422.1083717392276,-19.354838709677416
2423.108416483959,-25.806451612903224
2424.1084612286904,-29.03225806451613
2425.1085059734214,-29.03225806451613
2426.108550718153,-35.483870967741936
2427.1085954628843,-45.16129032258064
2428.1086402076157,-19.354838709677416
2429.1086849523467,6.451612903225806
2430.108729697078,19.354838709677416
2431.1087744418096,32.25806451612903
2432.1088191865406,32.25806451612903
2433.108863931272,41.935483870967744
2434.1089086760035,61.29032258064516
2435.108953420735,67.74193548387096
2436.108998165466,45.16129032258064
2437.1090429101973,16.129032258064516
2438.1090876549288,-6.451612903225806
2439.1091323996598,-22.58064516129032
2440.109177144391,-35.483870967741936
2441.1092218891226,-29.03225806451613
2442.109266633854,-41.935483870967744
2443.109311378585,-45.16129032258064
2444.1093561233165,-35.483870967741936
2445.109400868048,-9.677419354838708
2446.109445612779,12.903225806451612
2447.1094903575104,25.806451612903224
2448.109535102242,29.03225806451613
2449.109579846973,38.70967741935483
2450.1096245917042,45.16129032258064
2451.1096693364357,64.51612903225806
2452.109714081167,58.06451612903226
2453.109758825898,35.483870967741936
2454.1098035706295,6.451612903225806
2455.109848315361,-9.677419354838708
2456.109893060092,-25.806451612903224
2457.1099378048234,-35.483870967741936
2458.109982549555,-29.03225806451613
2459.1100272942863,-45.16129032258064
2460.1100720390173,-45.16129032258064
2461.1101167837487,-16.129032258064516
2462.11016152848,-6.451612903225806
2463.110206273211,19.354838709677416
2464.1102510179426,25.806451612903224
2465.110295762674,25.806451612903224
2466.1103405074055,35.483870967741936
2467.1103852521364,54.83870967741935
2468.110429996868,67.74193548387096
2469.1104747415993,51.61290322580645
2470.1105194863303,22.58064516129032
2471.1105642310617,6.451612903225806
2472.110608975793,-19.354838709677416
2473.1106537205246,-29.03225806451613
2474.1106984652556,-32.25806451612903
2475.110743209987,-35.483870967741936
2476.1107879547185,-38.70967741935483
2477.1108326994495,-41.935483870967744
2478.110877444181,-19.354838709677416
2479.1109221889124,9.677419354838708
2480.1109669336433,25.806451612903224
2481.111011678375,41.935483870967744
2482.111056423106,35.483870967741936
2483.1111011678377,38.70967741935483
2484.1111459125686,54.83870967741935
2485.1111906573,64.51612903225806
2486.1112354020315,45.16129032258064
2487.1112801467625,16.129032258064516
2488.111324891494,-6.451612903225806
2489.1113696362254,-19.354838709677416
2490.111414380957,-32.25806451612903
2491.111459125688,-22.58064516129032
2492.1115038704193,-38.70967741935483
2493.1115486151507,-45.16129032258064
2494.1115933598817,-29.03225806451613
2495.111638104613,-9.677419354838708
2496.1116828493446,3.225806451612903
2497.111727594076,19.354838709677416
2498.111772338807,22.58064516129032
2499.1118170835384,29.03225806451613
2500.11186182827,41.935483870967744
2501.111906573001,70.96774193548387
2502.1119513177323,64.51612903225806
2503.1119960624637,35.483870967741936
2504.112040807195,12.903225806451612
2505.112085551926,-9.677419354838708
2506.1121302966576,-25.806451612903224
2507.112175041389,-38.70967741935483
2508.11221978612,-35.483870967741936
2509.1122645308515,-45.16129032258064
2510.112309275583,-38.70967741935483
2511.112354020314,-22.58064516129032
2512.1123987650453,-6.451612903225806
2513.1124435097768,16.129032258064516
2514.112488254508,29.03225806451613
2515.112532999239,41.935483870967744
2516.1125777439706,32.25806451612903
2517.112622488702,48.387096774193544
2518.112667233433,61.29032258064516
2519.1127119781645,58.06451612903226
2520.112756722896,25.806451612903224
2521.1128014676274,3.225806451612903
2522.1128462123584,-22.58064516129032
2523.11289095709,-25.806451612903224
2524.1129357018212,-29.03225806451613
2525.1129804465522,-35.483870967741936
2526.1130251912837,-35.483870967741936
2527.113069936015,-38.70967741935483
2528.1131146807465,-12.903225806451612
2529.1131594254775,0.0
2530.113204170209,16.129032258064516
2531.1132489149404,29.03225806451613
2532.1132936596714,32.25806451612903
2533.113338404403,38.70967741935483
2534.1133831491343,54.83870967741935
2535.1134278938657,64.51612903225806
2536.1134726385967,48.387096774193544
2537.113517383328,12.903225806451612
2538.1135621280596,-6.451612903225806
2539.1136068727906,-25.806451612903224
2540.113651617522,-32.25806451612903
2541.1136963622534,-25.806451612903224
2542.1137411069844,-38.70967741935483
2543.113785851716,-48.387096774193544
2544.1138305964473,-35.483870967741936
2545.1138753411788,-9.677419354838708
2546.1139200859097,12.903225806451612
2547.113964830641,25.806451612903224
2548.1140095753726,35.483870967741936
2549.1140543201036,41.935483870967744
2550.114099064835,51.61290322580645
2551.1141438095665,67.74193548387096
2552.114188554298,58.06451612903226
2553.114233299029,25.806451612903224
2554.1142780437604,6.451612903225806
2555.114322788492,-9.677419354838708
2556.114367533223,-25.806451612903224
2557.114412277954,-32.25806451612903
2558.1144570226857,-25.806451612903224
2559.114501767417,-38.70967741935483
2560.114546512148,-51.61290322580645
2561.1145912568795,-32.25806451612903
2562.114636001611,-6.451612903225806
2563.114680746342,16.129032258064516
2564.1147254910734,29.03225806451613
2565.114770235805,35.483870967741936
2566.1148149805363,38.70967741935483
2567.1148597252673,58.06451612903226
2568.1149044699987,67.74193548387096
2569.11494921473,51.61290322580645
2570.114993959461,25.806451612903224
2571.1150387041926,9.677419354838708
2572.115083448924,-19.354838709677416
2573.115128193655,-29.03225806451613
2574.1151729383864,-29.03225806451613
2575.115217683118,-35.483870967741936
2576.1152624278493,-48.387096774193544
2577.1153071725803,-41.935483870967744
2578.1153519173117,-19.354838709677416
2579.115396662043,0.0
2580.115441406774,16.129032258064516
2581.1154861515056,35.483870967741936
2582.115530896237,38.70967741935483
2583.1155756409685,41.935483870967744
2584.1156203856995,58.06451612903226
2585.115665130431,64.51612903225806
2586.1157098751623,38.70967741935483
2587.1157546198933,12.903225806451612
2588.1157993646248,-6.451612903225806
2589.115844109356,-22.58064516129032
2590.1158888540876,-29.03225806451613
2591.1159335988186,-22.58064516129032
2592.11597834355,-35.483870967741936
2593.1160230882815,-51.61290322580645
2594.1160678330125,-32.25806451612903
2595.116112577744,-6.451612903225806
2596.1161573224754,16.129032258064516
2597.116202067207,29.03225806451613
2598.116246811938,32.25806451612903
2599.1162915566692,35.483870967741936
2600.1163363014007,45.16129032258064
2601.1163810461317,61.29032258064516
2602.116425790863,54.83870967741935
2603.1164705355945,35.483870967741936
2604.1165152803255,9.677419354838708
2605.116560025057,-19.354838709677416
2606.1166047697884,-25.806451612903224
2607.11664951452,-35.483870967741936
2608.116694259251,-32.25806451612903
2609.1167390039823,-41.935483870967744
2610.1167837487137,-41.935483870967744
2611.1168284934447,-22.58064516129032
2612.116873238176,0.0
2613.1169179829076,22.58064516129032
2614.116962727639,22.58064516129032
2615.11700747237,32.25806451612903
2616.1170522171014,35.483870967741936
2617.117096961833,58.06451612903226
2618.117141706564,77.41935483870967
2619.1171864512953,51.61290322580645
2620.1172311960268,25.806451612903224
2621.117275940758,6.451612903225806
2622.117320685489,-19.354838709677416
2623.1173654302206,-25.806451612903224
2624.117410174952,-38.70967741935483
2625.117454919683,-35.483870967741936
2626.1174996644145,-38.70967741935483
2627.117544409146,-38.70967741935483
2628.117589153877,-19.354838709677416
2629.1176338986083,0.0
2630.11767864334,19.354838709677416
2631.117723388071,29.03225806451613
2632.117768132802,35.483870967741936
2633.1178128775337,45.16129032258064
2634.117857622265,58.06451612903226
2635.117902366996,64.51612903225806
2636.1179471117275,38.70967741935483
2637.117991856459,12.903225806451612
2638.1180366011904,0.0
2639.1180813459214,-22.58064516129032
2640.118126090653,-25.806451612903224
2641.1181708353843,-25.806451612903224
2642.1182155801152,-45.16129032258064
2643.1182603248467,-38.70967741935483
2644.118305069578,-32.25806451612903
2645.1183498143096,-9.677419354838708
2646.1183945590406,12.903225806451612
2647.118439303772,19.354838709677416
2648.1184840485034,41.935483870967744
2649.1185287932344,35.483870967741936
2650.118573537966,51.61290322580645
2651.1186182826973,67.74193548387096
2652.1186630274287,48.387096774193544
2653.1187077721597,29.03225806451613
2654.118752516891,3.225806451612903
2655.1187972616226,-16.129032258064516
2656.1188420063536,-22.58064516129032
2657.118886751085,-29.03225806451613
2658.1189314958165,-25.806451612903224
2659.1189762405475,-41.935483870967744
2660.119020985279,-48.387096774193544
2661.1190657300103,-25.806451612903224
2662.119110474742,-3.225806451612903
2663.1191552194728,19.354838709677416
2664.119199964204,29.03225806451613
2665.1192447089356,32.25806451612903
2666.1192894536666,38.70967741935483
2667.119334198398,51.61290322580645
2668.1193789431295,70.96774193548387
2669.119423687861,51.61290322580645
2670.119468432592,25.806451612903224
2671.1195131773234,6.451612903225806
2672.119557922055,-22.58064516129032
2673.119602666786,-25.806451612903224
2674.1196474115172,-29.03225806451613
2675.1196921562487,-35.483870967741936
2676.11973690098,-41.935483870967744
2677.119781645711,-41.935483870967744
2678.1198263904425,-12.903225806451612
2679.119871135174,0.0
2680.119915879905,16.129032258064516
2681.1199606246364,29.03225806451613
2682.120005369368,35.483870967741936
2683.1200501140993,51.61290322580645
2684.1200948588303,67.74193548387096
2685.1201396035617,64.51612903225806
2686.120184348293,38.70967741935483
2687.120229093024,16.129032258064516
2688.1202738377556,-9.677419354838708
2689.120318582487,-25.806451612903224
2690.120363327218,-25.806451612903224
2691.1204080719494,-25.806451612903224
2692.120452816681,-41.935483870967744
2693.1204975614123,-48.387096774193544
2694.1205423061433,-38.70967741935483
2695.1205870508747,-16.129032258064516
2696.120631795606,16.129032258064516
2697.120676540337,25.806451612903224
2698.1207212850686,41.935483870967744
2699.1207660298,29.03225806451613
2700.1208107745315,45.16129032258064
2701.1208555192625,67.74193548387096
2702.120900263994,54.83870967741935
2703.1209450087254,38.70967741935483
2704.1209897534563,9.677419354838708
2705.121034498188,-6.451612903225806
2706.121079242919,-16.129032258064516
2707.1211239876507,-32.25806451612903
2708.1211687323816,-29.03225806451613
2709.121213477113,-41.935483870967744
2710.1212582218445,-41.935483870967744
2711.1213029665755,-16.129032258064516
2712.121347711307,-3.225806451612903
2713.1213924560384,16.129032258064516
2714.12143720077,25.806451612903224
2715.121481945501,32.25806451612903
2716.1215266902323,35.483870967741936
2717.1215714349637,48.387096774193544
2718.1216161796947,70.96774193548387
2719.121660924426,45.16129032258064
2720.1217056691576,25.806451612903224
2721.1217504138885,12.903225806451612
2722.12179515862,-16.129032258064516
2723.1218399033514,-25.806451612903224
2724.121884648083,-32.25806451612903
2725.121929392814,-32.25806451612903
2726.1219741375453,-48.387096774193544
2727.1220188822767,-41.935483870967744
2728.1220636270077,-12.903225806451612
2729.122108371739,3.225806451612903
2730.1221531164706,12.903225806451612
2731.122197861202,35.483870967741936
2732.122242605933,32.25806451612903
2733.1222873506645,45.16129032258064
2734.122332095396,54.83870967741935
2735.122376840127,58.06451612903226
2736.1224215848583,38.70967741935483
2737.1224663295898,19.354838709677416
2738.122511074321,0.0
2739.122555819052,-12.903225806451612
2740.1226005637836,-25.806451612903224
2741.122645308515,-35.483870967741936
2742.122690053246,-41.935483870967744
2743.1227347979775,-45.16129032258064
2744.122779542709,-35.483870967741936
2745.1228242874404,-9.677419354838708
2746.1228690321714,9.677419354838708
2747.122913776903,29.03225806451613
2748.1229585216342,32.25806451612903
2749.1230032663652,38.70967741935483
2750.1230480110967,51.61290322580645
2751.123092755828,67.74193548387096
2752.123137500559,48.387096774193544
2753.1231822452905,38.70967741935483
2754.123226990022,12.903225806451612
2755.1232717347534,-22.58064516129032
2756.1233164794844,-25.806451612903224
2757.123361224216,-35.483870967741936
2758.1234059689473,-29.03225806451613
2759.1234507136783,-41.935483870967744
2760.1234954584097,-41.935483870967744
2761.123540203141,-19.354838709677416
2762.1235849478726,0.0
2763.1236296926036,16.129032258064516
2764.123674437335,29.03225806451613
2765.1237191820665,35.483870967741936
2766.1237639267974,32.25806451612903
2767.123808671529,54.83870967741935
2768.1238534162603,64.51612903225806
2769.1238981609918,51.61290322580645
2770.1239429057227,25.806451612903224
2771.123987650454,6.451612903225806
2772.1240323951856,-19.354838709677416
2773.1240771399166,-25.806451612903224
2774.124121884648,-29.03225806451613
2775.1241666293795,-32.25806451612903
2776.1242113741105,-45.16129032258064
2777.124256118842,-35.483870967741936
2778.1243008635734,-16.129032258064516
2779.124345608305,0.0
2780.124390353036,19.354838709677416
2781.124435097767,29.03225806451613
2782.1244798424987,29.03225806451613
2783.1245245872296,41.935483870967744
2784.124569331961,61.29032258064516
2785.1246140766925,64.51612903225806
2786.124658821424,41.935483870967744
2787.124703566155,16.129032258064516
2788.1247483108864,-3.225806451612903
2789.124793055618,-25.806451612903224
2790.124837800349,-25.806451612903224
2791.1248825450803,-25.806451612903224
2792.1249272898117,-38.70967741935483
2793.124972034543,-41.935483870967744
2794.125016779274,-38.70967741935483
2795.1250615240056,-9.677419354838708
2796.125106268737,16.129032258064516
2797.125151013468,25.806451612903224
2798.1251957581994,35.483870967741936
2799.125240502931,32.25806451612903
2800.1252852476623,54.83870967741935
2801.1253299923933,74.19354838709677
2802.1253747371247,51.61290322580645
2803.125419481856,38.70967741935483
2804.125464226587,6.451612903225806
2805.1255089713186,-16.129032258064516
2806.12555371605,-22.58064516129032
2807.125598460781,-29.03225806451613
2808.1256432055125,-35.483870967741936
2809.125687950244,-45.16129032258064
2810.1257326949753,-48.387096774193544
2811.1257774397063,-25.806451612903224
2812.1258221844378,0.0
2813.125866929169,19.354838709677416
2814.1259116739,22.58064516129032
2815.1259564186316,25.806451612903224
2816.126001163363,35.483870967741936
2817.1260459080945,51.61290322580645
2818.1260906528255,64.51612903225806
2819.126135397557,58.06451612903226
2820.1261801422884,22.58064516129032
2821.1262248870194,6.451612903225806
2822.126269631751,-12.903225806451612
2823.1263143764822,-29.03225806451613
2824.1263591212137,-29.03225806451613
2825.1264038659447,-35.483870967741936
2826.126448610676,-38.70967741935483
2827.1264933554075,-35.483870967741936
2828.1265381001385,-12.903225806451612
2829.12658284487,6.451612903225806
2830.1266275896014,22.58064516129032
2831.126672334333,32.25806451612903
2832.126717079064,29.03225806451613
2833.1267618237953,45.16129032258064
2834.1268065685267,64.51612903225806
2835.1268513132577,64.51612903225806
2836.126896057989,38.70967741935483
2837.1269408027206,16.129032258064516
2838.1269855474516,-6.451612903225806
2839.127030292183,-22.58064516129032
2840.1270750369144,-25.806451612903224
2841.127119781646,-25.806451612903224
2842.127164526377,-41.935483870967744
2843.1272092711083,-48.387096774193544
2844.1272540158398,-38.70967741935483
2845.1272987605707,-9.677419354838708
2846.127343505302,9.677419354838708
2847.1273882500336,22.58064516129032
2848.127432994765,35.483870967741936
2849.127477739496,25.806451612903224
2850.1275224842275,45.16129032258064
2851.127567228959,67.74193548387096
2852.12761197369,51.61290322580645
2853.1276567184213,29.03225806451613
2854.127701463153,6.451612903225806
2855.1277462078842,-9.677419354838708
2856.127790952615,-25.806451612903224
2857.1278356973467,-29.03225806451613
2858.127880442078,-25.806451612903224
2859.127925186809,-38.70967741935483
2860.1279699315405,-48.387096774193544
2861.128014676272,-22.58064516129032
2862.1280594210034,-3.225806451612903
2863.1281041657344,16.129032258064516
2864.128148910466,29.03225806451613
2865.1281936551973,35.483870967741936
2866.1282383999283,35.483870967741936
2867.1282831446597,51.61290322580645
2868.128327889391,67.74193548387096
2869.128372634122,41.935483870967744
2870.1284173788536,19.354838709677416
2871.128462123585,3.225806451612903
2872.1285068683164,-19.354838709677416
2873.1285516130474,-29.03225806451613
2874.128596357779,-32.25806451612903
2875.1286411025103,-38.70967741935483
2876.1286858472413,-41.935483870967744
2877.1287305919727,-41.935483870967744
2878.128775336704,-12.903225806451612
2879.1288200814356,3.225806451612903
2880.1288648261666,22.58064516129032
2881.128909570898,38.70967741935483
2882.1289543156295,35.483870967741936
2883.1289990603605,41.935483870967744
2884.129043805092,58.06451612903226
2885.1290885498233,64.51612903225806
2886.129133294555,41.935483870967744
2887.1291780392858,12.903225806451612
2888.129222784017,-6.451612903225806
2889.1292675287486,-25.806451612903224
2890.1293122734796,-35.483870967741936
2891.129357018211,-25.806451612903224
2892.1294017629425,-35.483870967741936
2893.129446507674,-41.935483870967744
2894.129491252405,-29.03225806451613
2895.1295359971364,-9.677419354838708
2896.129580741868,9.677419354838708
2897.129625486599,22.58064516129032
2898.1296702313302,35.483870967741936
2899.1297149760617,35.483870967741936
2900.1297597207927,48.387096774193544
2901.129804465524,67.74193548387096
2902.1298492102555,58.06451612903226
2903.129893954987,38.70967741935483
2904.129938699718,9.677419354838708
2905.1299834444494,-12.903225806451612
2906.130028189181,-16.129032258064516
2907.130072933912,-32.25806451612903
2908.1301176786433,-32.25806451612903
2909.1301624233747,-38.70967741935483
2910.130207168106,-48.387096774193544
2911.130251912837,-25.806451612903224
2912.1302966575686,-6.451612903225806
2913.1303414023,9.677419354838708
2914.130386147031,32.25806451612903
2915.1304308917624,19.354838709677416
2916.130475636494,35.483870967741936
2917.1305203812253,61.29032258064516
2918.1305651259563,74.19354838709677
2919.1306098706877,58.06451612903226
2920.130654615419,32.25806451612903
2921.13069936015,6.451612903225806
2922.1307441048816,-12.903225806451612
2923.130788849613,-35.483870967741936
2924.130833594344,-32.25806451612903
2925.1308783390755,-38.70967741935483
2926.130923083807,-54.83870967741935
2927.1309678285384,-48.387096774193544
2928.1310125732693,-22.58064516129032
2929.131057318001,6.451612903225806
2930.131102062732,22.58064516129032
2931.131146807463,35.483870967741936
2932.1311915521947,35.483870967741936
2933.131236296926,38.70967741935483
2934.1312810416575,64.51612903225806
2935.1313257863885,67.74193548387096
2936.13137053112,45.16129032258064
2937.1314152758514,19.354838709677416
2938.1314600205824,-6.451612903225806
2939.131504765314,-16.129032258064516
2940.1315495100453,-22.58064516129032
2941.1315942547767,-19.354838709677416
2942.1316389995077,-29.03225806451613
2943.131683744239,-67.74193548387096
2944.1317284889706,-67.74193548387096
2945.1317732337016,-9.677419354838708
2946.131817978433,16.129032258064516
2947.1318627231644,29.03225806451613
2948.131907467896,38.70967741935483
2949.131952212627,38.70967741935483
2950.1319969573583,54.83870967741935
2951.1320417020897,74.19354838709677
2952.1320864468207,58.06451612903226
2953.132131191552,25.806451612903224
2954.1321759362836,12.903225806451612
2955.1322206810146,-12.903225806451612
2956.132265425746,-25.806451612903224
2957.1323101704775,-29.03225806451613
2958.132354915209,-35.483870967741936
2959.13239965994,-48.387096774193544
2960.1324444046713,-48.387096774193544
2961.1324891494028,-19.354838709677416
2962.1325338941338,-6.451612903225806
2963.132578638865,25.806451612903224
2964.1326233835966,35.483870967741936
2965.132668128328,35.483870967741936
2966.132712873059,35.483870967741936
2967.1327576177905,51.61290322580645
2968.132802362522,70.96774193548387
2969.132847107253,48.387096774193544
2970.1328918519844,19.354838709677416
2971.132936596716,-3.225806451612903
2972.1329813414472,-22.58064516129032
2973.1330260861782,-25.806451612903224
2974.1330708309097,-38.70967741935483
2975.133115575641,-38.70967741935483
2976.133160320372,-45.16129032258064
2977.1332050651035,-35.483870967741936
2978.133249809835,-16.129032258064516
2979.1332945545664,3.225806451612903
2980.1333392992974,16.129032258064516
2981.133384044029,32.25806451612903
2982.1334287887603,32.25806451612903
2983.1334735334913,35.483870967741936
2984.1335182782227,61.29032258064516
2985.133563022954,67.74193548387096
2986.133607767685,41.935483870967744
2987.1336525124166,9.677419354838708
2988.133697257148,-3.225806451612903
2989.1337420018795,-22.58064516129032
2990.1337867466104,-32.25806451612903
2991.133831491342,-25.806451612903224
2992.1338762360733,-41.935483870967744
2993.1339209808043,-48.387096774193544
2994.1339657255357,-32.25806451612903
2995.134010470267,-9.677419354838708
2996.1340552149986,19.354838709677416
2997.1340999597296,22.58064516129032
2998.134144704461,25.806451612903224
2999.1341894491925,29.03225806451613
3000.1342341939235,45.16129032258064
3001.134278938655,64.51612903225806
3002.1343236833864,61.29032258064516
3003.134368428118,25.806451612903224
3004.134413172849,3.225806451612903
3005.13445791758,-12.903225806451612
3006.1345026623117,-19.354838709677416
3007.1345474070426,-32.25806451612903
3008.134592151774,-32.25806451612903
3009.1346368965055,-41.935483870967744
3010.134681641237,-41.935483870967744
3011.134726385968,-22.58064516129032
3012.1347711306994,-3.225806451612903
3013.134815875431,16.129032258064516
3014.134860620162,25.806451612903224
3015.1349053648933,29.03225806451613
3016.1349501096247,41.935483870967744
3017.1349948543557,58.06451612903226
3018.135039599087,74.19354838709677
3019.1350843438186,45.16129032258064
3020.13512908855,19.354838709677416
3021.135173833281,9.677419354838708
3022.1352185780124,-22.58064516129032
3023.135263322744,-22.58064516129032
3024.135308067475,-35.483870967741936
3025.1353528122063,-35.483870967741936
3026.1353975569377,-45.16129032258064
3027.135442301669,-48.387096774193544
3028.1354870464,-12.903225806451612
3029.1355317911316,6.451612903225806
3030.135576535863,32.25806451612903
3031.135621280594,35.483870967741936
3032.1356660253255,35.483870967741936
3033.135710770057,45.16129032258064
3034.1357555147883,67.74193548387096
3035.1358002595193,61.29032258064516
3036.1358450042508,41.935483870967744
3037.135889748982,16.129032258064516
3038.135934493713,0.0
3039.1359792384446,-25.806451612903224
3040.136023983176,-22.58064516129032
3041.1360687279075,-22.58064516129032
3042.1361134726385,-41.935483870967744
3043.13615821737,-51.61290322580645
3044.1362029621014,-32.25806451612903
3045.1362477068324,-9.677419354838708
3046.136292451564,9.677419354838708
3047.1363371962952,22.58064516129032
3048.1363819410262,25.806451612903224
3049.1364266857577,32.25806451612903
3050.136471430489,45.16129032258064
3051.1365161752205,67.74193548387096
3052.1365609199515,54.83870967741935
3053.136605664683,29.03225806451613
3054.1366504094144,12.903225806451612
3055.1366951541454,0.0
3056.136739898877,-22.58064516129032
3057.1367846436083,-35.483870967741936
3058.1368293883397,-35.483870967741936
3059.1368741330707,-41.935483870967744
3060.136918877802,-38.70967741935483
3061.1369636225336,-25.806451612903224
3062.1370083672646,3.225806451612903
3063.137053111996,9.677419354838708
3064.1370978567275,25.806451612903224
3065.137142601459,32.25806451612903
3066.13718734619,38.70967741935483
3067.1372320909213,54.83870967741935
3068.1372768356528,67.74193548387096
3069.1373215803837,45.16129032258064
3070.137366325115,25.806451612903224
3071.1374110698466,6.451612903225806
3072.137455814578,-22.58064516129032
3073.137500559309,-32.25806451612903
3074.1375453040405,-32.25806451612903
3075.137590048772,-35.483870967741936
3076.137634793503,-45.16129032258064
3077.1376795382344,-38.70967741935483
3078.137724282966,-16.129032258064516
3079.137769027697,3.225806451612903
3080.137813772428,16.129032258064516
3081.1378585171597,29.03225806451613
3082.137903261891,38.70967741935483
3083.137948006622,45.16129032258064
3084.1379927513535,61.29032258064516
3085.138037496085,61.29032258064516
3086.138082240816,41.935483870967744
3087.1381269855474,19.354838709677416
3088.138171730279,-3.225806451612903
3089.1382164750103,-22.58064516129032
3090.1382612197413,-22.58064516129032
3091.1383059644727,-35.483870967741936
3092.138350709204,-32.25806451612903
3093.138395453935,-45.16129032258064
3094.1384401986666,-32.25806451612903
3095.138484943398,-9.677419354838708
3096.1385296881294,12.903225806451612
3097.1385744328604,22.58064516129032
3098.138619177592,35.483870967741936
3099.1386639223233,38.70967741935483
3100.1387086670543,51.61290322580645
3101.1387534117857,64.51612903225806
3102.138798156517,58.06451612903226
3103.138842901248,25.806451612903224
3104.1388876459796,9.677419354838708
3105.138932390711,-25.806451612903224
3106.1389771354425,-32.25806451612903
3107.1390218801735,-32.25806451612903
3108.139066624905,-29.03225806451613
3109.1391113696363,-41.935483870967744
3110.1391561143673,-45.16129032258064
3111.1392008590988,-16.129032258064516
3112.13924560383,0.0
3113.1392903485616,19.354838709677416
3114.1393350932926,32.25806451612903
3115.139379838024,35.483870967741936
3116.1394245827555,38.70967741935483
3117.1394693274865,61.29032258064516
3118.139514072218,74.19354838709677
3119.1395588169494,51.61290322580645
3120.139603561681,19.354838709677416
3121.139648306412,3.225806451612903
3122.1396930511432,-25.806451612903224
3123.1397377958747,-29.03225806451613
3124.1397825406057,-29.03225806451613
3125.139827285337,-35.483870967741936
3126.1398720300685,-41.935483870967744
3127.1399167748,-38.70967741935483
3128.139961519531,-22.58064516129032
3129.1400062642624,6.451612903225806
3130.140051008994,25.806451612903224
3131.140095753725,35.483870967741936
3132.1401404984563,35.483870967741936
3133.1401852431877,54.83870967741935
3134.1402299879187,64.51612903225806
3135.14027473265,64.51612903225806
3136.1403194773816,38.70967741935483
3137.140364222113,6.451612903225806
3138.140408966844,-9.677419354838708
3139.1404537115754,-25.806451612903224
3140.140498456307,-25.806451612903224
3141.140543201038,-29.03225806451613
3142.1405879457693,-41.935483870967744
3143.1406326905008,-48.387096774193544
3144.140677435232,-32.25806451612903
3145.140722179963,-3.225806451612903
3146.1407669246946,12.903225806451612
3147.140811669426,25.806451612903224
3148.140856414157,35.483870967741936
