tiempo,valor
8000.0,502.0
8000.999999999999,498.0
8002.000000000001,488.0
8003.0,492.0
8004.0,513.0
8005.000000000001,532.0
8006.0,514.0
8007.0,512.0
8008.000000000001,515.0
8009.0,520.0
8010.0,531.0
8011.000000000001,536.0
8012.0,522.0
8013.0,504.0
8013.999999999999,497.0
8015.000000000001,500.0
8016.0,492.0
8016.999999999999,495.0
8018.000000000001,508.0
8019.0,513.0
8020.0,504.0
8021.000000000001,503.0
8022.0,511.0
8023.0,517.0
8024.000000000001,511.0
8025.0,506.0
8026.0,503.0
8027.000000000001,502.0
8028.000000000001,522.0
8029.0,539.0
8029.999999999999,524.0
8031.000000000001,505.0
8032.0,497.0
8032.999999999999,497.0
8034.000000000001,501.0
8035.0,514.0
8036.0,505.0
8037.000000000001,495.0
8038.0,497.0
8039.0,505.0
8040.000000000001,503.0
8041.0,505.0
8042.0,510.0
8043.000000000001,511.0
8044.000000000001,516.0
8045.0,515.0
8045.999999999999,511.0
8047.000000000001,520.0
8048.0,533.0
8048.999999999999,517.0
8050.000000000001,502.0
8051.0,502.0
8052.0,501.0
8053.000000000001,502.0
8054.0,508.0
8055.0,512.0
8056.000000000001,510.0
8057.0,504.0
8058.0,497.0
8059.000000000001,515.0
8060.000000000001,537.0
8061.0,508.0
8061.999999999999,495.0
8063.000000000001,506.0
8064.0,518.0
8064.999999999999,515.0
8066.000000000001,496.0
8067.0,473.0
8068.0,475.0
8069.000000000001,491.0
8070.0,520.0
8071.0,566.0
8072.000000000001,556.0
8073.0,524.0
8074.0,510.0
8074.999999999999,509.0
8076.000000000001,505.0
8077.0,501.0
8077.999999999999,504.0
8079.000000000001,507.0
8080.0,506.0
8080.999999999999,504.0
8082.000000000001,505.0
8083.0,496.0
8084.0,483.0
8085.000000000001,487.0
8086.0,507.0
8087.0,525.0
8088.000000000001,525.0
8089.0,523.0
8090.0,514.0
8090.999999999999,514.0
8092.000000000001,516.0
8093.0,511.0
8093.999999999999,512.0
8095.000000000001,518.0
8096.0,514.0
8096.999999999999,497.0
8098.000000000001,489.0
8099.0,490.0
8100.0,485.0
8101.000000000001,479.0
8102.0,508.0
8103.0,537.0
8104.000000000001,538.0
8105.0,527.0
8106.0,525.0
8106.999999999999,506.0
8108.000000000001,502.0
8109.0,514.0
8109.999999999999,518.0
8111.000000000001,515.0
8112.0,508.0
8113.0,504.0
8114.000000000001,499.0
8115.0,496.0
8116.0,484.0
8117.000000000001,477.0
8118.0,496.0
8119.0,513.0
8120.000000000001,527.0
8121.0,521.0
8122.0,520.0
8122.999999999999,517.0
8124.000000000001,519.0
8125.0,520.0
8125.999999999999,516.0
8127.000000000001,511.0
8128.0,511.0
8129.0,507.0
8130.000000000001,507.0
8131.0,508.0
8132.0,502.0
8133.000000000001,502.0
8134.0,506.0
8135.0,506.0
8136.000000000001,504.0
8137.0,496.0
8138.0,498.0
8138.999999999999,506.0
8140.000000000001,500.0
8141.0,507.0
8141.999999999999,516.0
8143.000000000001,514.0
8144.0,518.0
8145.0,510.0
8146.000000000001,511.0
8147.0,527.0
8148.0,531.0
8149.000000000001,507.0
8150.0,502.0
8151.0,507.0
8152.000000000001,505.0
8153.000000000001,501.0
8154.0,505.0
8154.999999999999,512.0
8156.000000000001,512.0
8157.0,505.0
8157.999999999999,510.0
8159.000000000001,514.0
8160.0,509.0
8161.0,507.0
8162.000000000001,499.0
8163.0,500.0
8164.0,508.0
8165.000000000001,512.0
8166.0,512.0
8167.0,509.0
8168.000000000001,510.0
8169.000000000001,508.0
8170.0,509.0
8170.999999999999,509.0
8172.000000000001,511.0
8173.0,509.0
8173.999999999999,510.0
8175.000000000001,504.0
8176.0,508.0
8177.0,516.0
8178.000000000001,511.0
8179.0,496.0
8180.0,495.0
8181.000000000001,498.0
8182.0,521.0
8183.0,501.0
8184.000000000001,508.0
8185.000000000001,530.0
8186.0,519.0
8186.999999999999,512.0
8188.000000000001,509.0
8189.0,512.0
8189.999999999999,510.0
8191.000000000001,513.0
8192.0,511.0
8193.0,514.0
8194.0,509.0
8195.0,504.0
8196.0,501.0
8197.000000000002,499.0
8198.0,503.0
8199.0,501.0
8200.0,502.0
8201.0,498.0
8202.0,496.0
8203.0,504.0
8204.0,518.0
8205.0,526.0
8206.0,520.0
8207.0,493.0
8208.0,507.0
8209.0,526.0
8210.0,542.0
8211.0,536.0
8212.0,518.0
8213.000000000002,508.0
8214.0,500.0
8215.0,499.0
8216.0,499.0
8217.0,495.0
8218.0,496.0
8219.0,498.0
8220.0,481.0
8221.0,483.0
8222.0,510.0
8223.0,513.0
8224.0,552.0
8225.0,550.0
8226.0,520.0
8227.0,514.0
8228.0,520.0
8229.000000000002,517.0
8230.0,510.0
8231.0,504.0
8232.0,498.0
8233.0,495.0
8234.0,497.0
8235.0,504.0
8236.0,509.0
8237.0,507.0
8238.0,510.0
8239.0,505.0
8240.0,504.0
8241.0,511.0
8242.0,511.0
8243.0,516.0
8244.0,515.0
8245.000000000002,515.0
8246.0,509.0
8247.0,503.0
8248.0,501.0
8249.0,488.0
8250.0,498.0
8251.0,523.0
8252.0,519.0
8253.0,511.0
8254.0,507.0
8255.0,505.0
8256.0,504.0
8257.0,505.0
8258.0,515.0
8259.0,508.0
8260.0,495.0
8261.000000000002,478.0
8262.0,488.0
8263.0,525.0
8264.0,540.0
8265.0,524.0
8266.0,528.0
8267.0,518.0
8268.0,509.0
8269.0,512.0
8270.0,506.0
8271.0,518.0
8272.0,514.0
8273.0,509.0
8274.0,511.0
8275.0,512.0
8276.0,511.0
8277.000000000002,515.0
8278.0,508.0
8279.0,502.0
8280.0,502.0
8281.0,503.0
8282.0,500.0
8283.0,497.0
8284.0,495.0
8285.0,501.0
8286.0,506.0
8287.0,509.0
8288.0,512.0
8289.0,515.0
8290.000000000002,515.0
8291.0,512.0
8292.0,510.0
8293.000000000002,513.0
8294.0,513.0
8295.0,511.0
8296.0,508.0
8297.0,509.0
8298.0,506.0
8299.0,500.0
8300.0,497.0
8301.0,498.0
8302.0,504.0
8303.0,513.0
8304.0,516.0
8305.0,514.0
8306.000000000002,518.0
8307.0,514.0
8308.0,505.0
8309.000000000002,512.0
8310.0,518.0
8311.0,515.0
8312.0,515.0
8313.0,510.0
8314.0,514.0
8315.0,519.0
8316.0,511.0
8317.0,501.0
8318.0,490.0
8319.0,480.0
8320.0,496.0
8321.0,509.0
8322.000000000002,507.0
8323.0,521.0
8324.0,511.0
8325.0,504.0
8326.0,507.0
8327.0,513.0
8328.0,519.0
8329.0,518.0
8330.0,524.0
8331.0,513.0
8332.0,505.0
8333.0,501.0
8334.0,501.0
8335.0,505.0
8336.0,506.0
8337.0,507.0
8338.000000000002,513.0
8339.0,513.0
8340.0,512.0
8341.0,516.0
8342.0,515.0
8343.0,515.0
8344.0,511.0
8345.0,507.0
8346.0,505.0
8347.0,505.0
8348.0,506.0
8349.0,503.0
8350.0,504.0
8351.0,504.0
8352.0,505.0
8353.0,510.0
8354.000000000002,510.0
8355.0,510.0
8356.0,516.0
8357.0,516.0
8358.0,504.0
8359.0,492.0
8360.0,480.0
8361.0,478.0
8362.0,487.0
8363.0,502.0
8364.0,515.0
8365.0,519.0
8366.0,521.0
8367.0,524.0
8368.0,527.0
8369.0,535.0
8370.000000000002,542.0
8371.0,545.0
8372.0,543.0
8373.0,536.0
8374.0,524.0
8375.0,512.0
8376.0,506.0
8377.0,495.0
8378.0,492.0
8379.0,485.0
8380.0,488.0
8381.0,485.0
8382.0,486.0
8383.0,488.0
8384.0,496.0
8385.0,506.0
8386.000000000002,516.0
8387.0,512.0
8388.0,506.0
8389.0,510.0
8390.0,510.0
8391.0,511.0
8392.0,512.0
8393.0,506.0
8394.0,506.0
8395.0,505.0
8396.0,507.0
8397.0,506.0
8398.0,510.0
8399.0,512.0
8400.0,512.0
8401.0,518.0
8402.000000000002,519.0
8403.0,520.0
8404.0,523.0
8405.0,526.0
8406.0,519.0
8407.0,513.0
8408.0,507.0
8409.0,507.0
8410.0,505.0
8411.0,504.0
8412.0,504.0
8413.0,505.0
8414.0,502.0
8415.000000000002,500.0
8416.0,499.0
8417.0,504.0
8418.000000000002,507.0
8419.0,508.0
8420.0,508.0
8421.0,504.0
8422.0,496.0
8423.0,503.0
8424.0,510.0
8425.0,512.0
8426.0,507.0
8427.0,503.0
8428.0,505.0
8429.0,508.0
8430.0,510.0
8431.000000000002,508.0
8432.0,512.0
8433.0,513.0
8434.000000000002,518.0
8435.0,519.0
8436.0,520.0
8437.0,524.0
8438.0,524.0
8439.0,516.0
8440.0,510.0
8441.0,504.0
8442.0,501.0
8443.0,499.0
8444.0,499.0
8445.0,493.0
8446.0,496.0
8447.000000000002,495.0
8448.0,497.0
8449.0,500.0
8450.0,501.0
8451.0,512.0
8452.0,519.0
8453.0,528.0
8454.0,530.0
8455.0,530.0
8456.0,529.0
8457.0,527.0
8458.0,527.0
8459.0,525.0
8460.0,521.0
8461.0,507.0
8462.0,498.0
8463.000000000002,463.0
8464.0,464.0
8465.0,480.0
8466.0,487.0
8467.0,497.0
8468.0,508.0
8469.0,518.0
8470.0,519.0
8471.0,527.0
8472.0,532.0
8473.0,540.0
8474.0,542.0
8475.0,537.0
8476.0,516.0
8477.0,509.0
8478.0,504.0
8479.000000000002,492.0
8480.0,490.0
8481.0,493.0
8482.0,496.0
8483.0,496.0
8484.0,498.0
8485.0,503.0
8486.0,504.0
8487.0,506.0
8488.0,495.0
8489.0,488.0
8490.0,482.0
8491.0,481.0
8492.0,494.0
8493.0,507.0
8494.0,508.0
8495.000000000002,502.0
8496.0,511.0
8497.0,522.0
8498.0,528.0
8499.0,540.0
8500.0,552.0
8501.0,560.0
8502.0,555.0
8503.0,540.0
8504.0,529.0
8505.0,523.0
8506.0,514.0
8507.0,511.0
8508.0,506.0
8509.0,506.0
8510.0,504.0
8511.000000000002,502.0
8512.0,496.0
8513.0,490.0
8514.0,491.0
8515.0,490.0
8516.0,486.0
8517.0,486.0
8518.0,480.0
8519.0,483.0
8520.0,496.0
8521.0,496.0
8522.0,501.0
8523.0,504.0
8524.0,505.0
8525.0,486.0
8526.0,493.0
8527.000000000002,507.0
8528.0,522.0
8529.0,529.0
8530.0,535.0
8531.0,532.0
8532.0,527.0
8533.0,531.0
8534.0,536.0
8535.0,540.0
8536.0,534.0
8537.0,526.0
8538.0,525.0
8539.0,517.0
8540.000000000002,505.0
8541.0,485.0
8542.0,468.0
8543.000000000002,475.0
8544.0,489.0
8545.0,493.0
8546.0,497.0
8547.0,500.0
8548.0,503.0
8549.0,504.0
8550.0,504.0
8551.0,508.0
8552.0,512.0
8553.0,512.0
8554.0,512.0
8555.0,513.0
8556.000000000002,512.0
8557.0,514.0
8558.0,511.0
8559.000000000002,508.0
8560.0,511.0
8561.0,515.0
8562.0,518.0
8563.0,511.0
8564.0,512.0
8565.0,512.0
8566.0,514.0
8567.0,515.0
8568.0,515.0
8569.0,513.0
8570.0,511.0
8571.0,506.0
8572.000000000002,506.0
8573.0,495.0
8574.0,492.0
8575.000000000002,487.0
8576.0,463.0
8577.0,438.0
8578.0,444.0
8579.0,478.0
8580.0,512.0
8581.0,531.0
8582.0,544.0
8583.0,561.0
8584.0,568.0
8585.0,579.0
8586.0,584.0
8587.0,584.0
8588.000000000002,575.0
8589.0,547.0
8590.0,531.0
8591.0,514.0
8592.0,487.0
8593.0,468.0
8594.0,469.0
8595.0,464.0
8596.0,447.0
8597.0,447.0
8598.0,451.0
8599.0,470.0
8600.0,497.0
8601.0,506.0
8602.0,518.0
8603.0,529.0
8604.000000000002,534.0
8605.0,541.0
8606.0,541.0
8607.0,538.0
8608.0,525.0
8609.0,504.0
8610.0,508.0
8611.0,507.0
8612.0,500.0
8613.0,497.0
8614.0,494.0
8615.0,498.0
8616.0,504.0
8617.0,494.0
8618.0,482.0
8619.0,486.0
8620.000000000002,487.0
8621.0,493.0
8622.0,500.0
8623.0,504.0
8624.0,505.0
8625.0,508.0
8626.0,510.0
8627.0,527.0
8628.0,540.0
8629.0,549.0
8630.0,547.0
8631.0,543.0
8632.0,526.0
8633.0,513.0
8634.0,505.0
8635.0,511.0
8636.000000000002,518.0
8637.0,520.0
8638.0,519.0
8639.0,509.0
8640.0,502.0
8641.0,498.0
8642.0,491.0
8643.0,488.0
8644.0,490.0
8645.0,473.0
8646.0,448.0
8647.0,455.0
8648.0,474.0
8649.0,504.0
8650.0,537.0
8651.0,551.0
8652.000000000002,553.0
8653.0,538.0
8654.0,529.0
8655.0,550.0
8656.0,563.0
8657.0,565.0
8658.0,548.0
8659.0,525.0
8660.0,493.0
8661.0,478.0
8662.0,469.0
8663.0,469.0
8664.0,479.0
8665.000000000002,482.0
8666.0,481.0
8667.0,487.0
8668.000000000002,496.0
8669.0,499.0
8670.0,505.0
8671.0,504.0
8672.0,498.0
8673.0,508.0
8674.0,513.0
8675.0,516.0
8676.0,523.0
8677.0,519.0
8678.0,521.0
8679.0,528.0
8680.0,537.0
8681.000000000002,535.0
8682.0,539.0
8683.0,526.0
8684.000000000002,529.0
8685.0,512.0
8686.0,494.0
8687.0,496.0
8688.0,497.0
8689.0,495.0
8690.0,482.0
8691.0,465.0
8692.0,476.0
8693.0,501.0
8694.0,505.0
8695.0,512.0
8696.0,507.0
8697.000000000002,489.0
8698.0,507.0
8699.0,520.0
8700.000000000002,527.0
8701.0,525.0
8702.0,529.0
8703.0,533.0
8704.0,521.0
8705.0,509.0
8706.0,499.0
8707.0,494.0
8708.0,498.0
8709.0,502.0
8710.0,506.0
8711.0,504.0
8712.0,510.0
8713.000000000002,513.0
8714.0,523.0
8715.0,540.0
8716.0,525.0
8717.0,502.0
8718.0,513.0
8719.0,520.0
8720.0,518.0
8721.0,522.0
8722.0,524.0
8723.0,526.0
8724.0,522.0
8725.0,495.0
8726.0,493.0
8727.0,488.0
8728.0,479.0
8729.000000000002,487.0
8730.0,489.0
8731.0,499.0
8732.0,501.0
8733.0,483.0
8734.0,490.0
8735.0,515.0
8736.0,523.0
8737.0,523.0
8738.0,520.0
8739.0,518.0
8740.0,523.0
8741.0,519.0
8742.0,509.0
8743.0,507.0
8744.0,509.0
8745.000000000002,490.0
8746.0,501.0
8747.0,513.0
8748.0,499.0
8749.0,495.0
8750.0,504.0
8751.0,519.0
8752.0,527.0
8753.0,529.0
8754.0,529.0
8755.0,524.0
8756.0,526.0
8757.0,528.0
8758.0,514.0
8759.0,493.0
8760.0,491.0
8761.000000000002,500.0
8762.0,499.0
8763.0,489.0
8764.0,495.0
8765.0,513.0
8766.0,528.0
8767.0,547.0
8768.0,525.0
8769.0,476.0
8770.0,456.0
8771.0,449.0
8772.0,484.0
8773.0,503.0
8774.0,501.0
8775.0,514.0
8776.0,524.0
8777.000000000002,529.0
8778.0,536.0
8779.0,531.0
8780.0,535.0
8781.0,534.0
8782.0,535.0
8783.0,530.0
8784.0,529.0
8785.0,524.0
8786.0,523.0
8787.0,514.0
8788.0,512.0
8789.0,514.0
8790.000000000002,511.0
8791.0,499.0
8792.0,470.0
8793.000000000002,444.0
8794.0,417.0
8795.0,451.0
8796.0,480.0
8797.0,503.0
8798.0,509.0
8799.0,530.0
8800.0,544.0
8801.0,543.0
8802.0,545.0
8803.0,547.0
8804.0,551.0
8805.0,550.0
8806.000000000002,532.0
8807.0,510.0
8808.0,487.0
8809.000000000002,480.0
8810.0,481.0
8811.0,463.0
8812.0,463.0
8813.0,467.0
8814.0,484.0
8815.0,508.0
8816.0,526.0
8817.0,531.0
8818.0,549.0
8819.0,553.0
8820.0,544.0
8821.0,536.0
8822.000000000002,513.0
8823.0,512.0
8824.0,514.0
8825.000000000002,500.0
8826.0,507.0
8827.0,525.0
8828.0,530.0
8829.0,521.0
8830.0,491.0
8831.0,451.0
8832.0,473.0
8833.0,479.0
8834.0,497.0
8835.0,491.0
8836.0,504.0
8837.0,512.0
8838.000000000002,502.0
8839.0,506.0
8840.0,512.0
8841.0,512.0
8842.0,518.0
8843.0,518.0
8844.0,533.0
8845.0,531.0
8846.0,517.0
8847.0,503.0
8848.0,502.0
8849.0,517.0
8850.0,523.0
8851.0,523.0
8852.0,513.0
8853.0,513.0
8854.000000000002,503.0
8855.0,494.0
8856.0,504.0
8857.0,518.0
8858.0,510.0
8859.0,497.0
8860.0,471.0
8861.0,458.0
8862.0,489.0
8863.0,507.0
8864.0,522.0
8865.0,537.0
8866.0,534.0
8867.0,536.0
8868.0,519.0
8869.0,514.0
8870.000000000002,527.0
8871.0,518.0
8872.0,508.0
8873.0,502.0
8874.0,513.0
8875.0,498.0
8876.0,465.0
8877.0,491.0
8878.0,520.0
8879.0,520.0
8880.0,520.0
8881.0,506.0
8882.0,486.0
8883.0,476.0
8884.0,499.0
8885.0,511.0
8886.000000000002,515.0
8887.0,515.0
8888.0,521.0
8889.0,524.0
8890.0,522.0
8891.0,520.0
8892.0,509.0
8893.0,489.0
8894.0,508.0
8895.0,508.0
8896.0,504.0
8897.0,506.0
8898.0,505.0
8899.0,505.0
8900.0,501.0
8901.0,492.0
8902.000000000002,493.0
8903.0,494.0
8904.0,506.0
8905.0,532.0
8906.0,550.0
8907.0,536.0
8908.0,532.0
8909.0,478.0
8910.0,485.0
8911.0,520.0
8912.0,527.0
8913.0,525.0
8914.0,521.0
8915.000000000002,511.0
8916.0,518.0
8917.0,527.0
8918.000000000002,537.0
8919.0,518.0
8920.0,496.0
8921.0,491.0
8922.0,483.0
8923.0,469.0
8924.0,465.0
8925.0,502.0
8926.0,524.0
8927.0,527.0
8928.0,520.0
8929.0,508.0
8930.0,521.0
8931.000000000002,492.0
8932.0,505.0
8933.0,527.0
8934.000000000002,528.0
8935.0,530.0
8936.0,519.0
8937.0,499.0
8938.0,492.0
8939.0,482.0
8940.0,492.0
8941.0,506.0
8942.0,512.0
8943.0,519.0
8944.0,516.0
8945.0,492.0
8946.0,502.0
8947.000000000002,486.0
8948.0,479.0
8949.0,478.0
8950.000000000002,497.0
8951.0,524.0
8952.0,536.0
8953.0,539.0
8954.0,540.0
8955.0,516.0
8956.0,515.0
8957.0,521.0
8958.0,518.0
8959.0,515.0
8960.0,505.0
8961.0,522.0
8962.0,509.0
8963.000000000002,501.0
8964.0,491.0
8965.0,473.0
8966.0,496.0
8967.0,518.0
8968.0,525.0
8969.0,526.0
8970.0,528.0
8971.0,524.0
8972.0,518.0
8973.0,517.0
8974.0,512.0
8975.0,503.0
8976.0,481.0
8977.0,477.0
8978.0,502.0
8979.000000000002,524.0
8980.0,529.0
8981.0,530.0
8982.0,513.0
8983.0,509.0
8984.0,523.0
8985.0,512.0
8986.0,510.0
8987.0,479.0
8988.0,478.0
8989.0,491.0
8990.0,495.0
8991.0,483.0
8992.0,472.0
8993.0,467.0
8994.0,483.0
8995.000000000002,510.0
8996.0,535.0
8997.0,546.0
8998.0,553.0
8999.0,557.0
9000.0,569.0
9001.0,568.0
9002.0,551.0
9003.0,531.0
9004.0,511.0
9005.0,493.0
9006.0,491.0
9007.0,488.0
9008.0,494.0
9009.0,497.0
9010.0,507.0
9011.000000000002,511.0
9012.0,507.0
9013.0,486.0
9014.0,471.0
9015.0,505.0
9016.0,530.0
9017.0,542.0
9018.0,517.0
9019.0,503.0
9020.0,483.0
9021.0,481.0
9022.0,512.0
9023.0,518.0
9024.0,488.0
9025.0,475.0
9026.0,460.0
9027.000000000002,483.0
9028.0,517.0
9029.0,520.0
9030.0,518.0
9031.0,521.0
9032.0,512.0
9033.0,497.0
9034.0,482.0
9035.0,499.0
9036.0,514.0
9037.0,524.0
9038.0,536.0
9039.0,519.0
9040.000000000002,512.0
9041.0,521.0
9042.0,520.0
9043.000000000002,522.0
9044.0,534.0
9045.0,533.0
9046.0,521.0
9047.0,520.0
9048.0,520.0
9049.0,512.0
9050.0,510.0
9051.0,508.0
9052.0,496.0
9053.0,504.0
9054.0,501.0
9055.0,506.0
9056.000000000002,512.0
9057.0,502.0
9058.0,487.0
9059.000000000002,467.0
9060.0,489.0
9061.0,547.0
9062.0,533.0
9063.0,491.0
9064.0,493.0
9065.0,503.0
9066.0,515.0
9067.0,547.0
9068.0,548.0
9069.0,523.0
9070.0,507.0
9071.0,480.0
9072.000000000002,494.0
9073.0,506.0
9074.0,491.0
9075.000000000002,511.0
9076.0,508.0
9077.0,479.0
9078.0,481.0
9079.0,483.0
9080.0,504.0
9081.0,513.0
9082.0,519.0
9083.0,522.0
9084.0,512.0
9085.0,515.0
9086.0,495.0
9087.0,462.0
9088.000000000002,508.0
9089.0,541.0
9090.0,530.0
9091.0,518.0
9092.0,522.0
9093.0,546.0
9094.0,528.0
9095.0,530.0
9096.0,507.0
9097.0,492.0
9098.0,486.0
9099.0,504.0
9100.0,515.0
9101.0,509.0
9102.0,513.0
9103.0,511.0
9104.000000000002,509.0
9105.0,510.0
9106.0,501.0
9107.0,509.0
9108.0,504.0
9109.0,508.0
9110.0,508.0
9111.0,505.0
9112.0,504.0
9113.0,503.0
9114.0,505.0
9115.0,492.0
9116.0,519.0
9117.0,541.0
9118.0,532.0
9119.0,542.0
9120.000000000002,518.0
9121.0,499.0
9122.0,523.0
9123.0,514.0
9124.0,467.0
9125.0,431.0
9126.0,469.0
9127.0,495.0
9128.0,509.0
9129.0,521.0
9130.0,501.0
9131.0,499.0
9132.0,515.0
9133.0,520.0
9134.0,513.0
9135.0,511.0
9136.000000000002,509.0
9137.0,537.0
9138.0,568.0
9139.0,572.0
9140.0,561.0
9141.0,528.0
9142.0,485.0
9143.0,462.0
9144.0,491.0
9145.0,499.0
9146.0,460.0
9147.0,472.0
9148.0,484.0
9149.0,459.0
9150.0,476.0
9151.0,504.0
9152.000000000002,492.0
9153.0,533.0
9154.0,555.0
9155.0,555.0
9156.0,544.0
9157.0,560.0
9158.0,553.0
9159.0,521.0
9160.0,512.0
9161.0,505.0
9162.0,504.0
9163.0,508.0
9164.0,522.0
9165.000000000002,529.0
9166.0,515.0
9167.0,504.0
9168.000000000002,501.0
9169.0,491.0
9170.0,459.0
9171.0,433.0
9172.0,465.0
9173.0,521.0
9174.0,552.0
9175.0,532.0
9176.0,500.0
9177.0,499.0
9178.0,509.0
9179.0,516.0
9180.0,522.0
9181.000000000002,535.0
9182.0,546.0
9183.0,555.0
9184.000000000002,542.0
9185.0,472.0
9186.0,446.0
9187.0,476.0
9188.0,514.0
9189.0,505.0
9190.0,477.0
9191.0,445.0
9192.0,452.0
9193.0,480.0
9194.0,504.0
9195.0,527.0
9196.0,545.0
9197.000000000002,545.0
9198.0,539.0
9199.0,538.0
9200.000000000002,556.0
9201.0,538.0
9202.0,513.0
9203.0,530.0
9204.0,528.0
9205.0,484.0
9206.0,441.0
9207.0,452.0
9208.0,479.0
9209.0,527.0
9210.0,543.0
9211.0,518.0
9212.0,500.0
9213.000000000002,496.0
9214.0,474.0
9215.0,498.0
9216.000000000002,534.0
9217.0,527.0
9218.0,513.0
9219.0,519.0
9220.0,531.0
9221.0,533.0
9222.0,542.0
9223.0,531.0
9224.0,518.0
9225.0,515.0
9226.0,507.0
9227.0,492.0
9228.0,493.0
9229.000000000002,502.0
9230.0,505.0
9231.0,481.0
9232.0,490.0
9233.0,488.0
9234.0,476.0
9235.0,499.0
9236.0,525.0
9237.0,537.0
9238.0,531.0
9239.0,516.0
9240.0,504.0
9241.0,531.0
9242.0,571.0
9243.0,571.0
9244.0,550.0
9245.000000000002,531.0
9246.0,477.0
9247.0,433.0
9248.0,455.0
9249.0,509.0
9250.0,526.0
9251.0,501.0
9252.0,469.0
9253.0,484.0
9254.0,515.0
9255.0,531.0
9256.0,524.0
9257.0,515.0
9258.0,498.0
9259.0,474.0
9260.0,488.0
9261.000000000002,503.0
9262.0,530.0
9263.0,541.0
9264.0,551.0
9265.0,548.0
9266.0,531.0
9267.0,498.0
9268.0,461.0
9269.0,466.0
9270.0,474.0
9271.0,498.0
9272.0,513.0
9273.0,511.0
9274.0,513.0
9275.0,490.0
9276.0,476.0
9277.000000000002,475.0
9278.0,460.0
9279.0,444.0
9280.0,475.0
9281.0,498.0
9282.0,512.0
9283.0,558.0
9284.0,607.0
9285.0,628.0
9286.0,604.0
9287.0,557.0
9288.0,527.0
9289.0,508.0
9290.000000000002,504.0
9291.0,502.0
9292.0,492.0
9293.000000000002,478.0
9294.0,457.0
9295.0,450.0
9296.0,458.0
9297.0,476.0
9298.0,524.0
9299.0,564.0
9300.0,589.0
9301.0,602.0
9302.0,561.0
9303.0,524.0
9304.0,465.0
9305.0,422.0
9306.000000000002,427.0
9307.0,468.0
9308.0,497.0
9309.000000000002,511.0
9310.0,526.0
9311.0,527.0
9312.0,531.0
9313.0,512.0
9314.0,485.0
9315.0,505.0
9316.0,528.0
9317.0,531.0
9318.0,508.0
9319.0,518.0
9320.0,511.0
9321.0,496.0
9322.000000000002,502.0
9323.0,478.0
9324.0,481.0
9325.000000000002,494.0
9326.0,485.0
9327.0,511.0
9328.0,549.0
9329.0,540.0
9330.0,517.0
9331.0,501.0
9332.0,521.0
9333.0,545.0
9334.0,542.0
9335.0,532.0
9336.0,508.0
9337.0,492.0
9338.000000000002,481.0
9339.0,499.0
9340.0,512.0
9341.000000000002,497.0
9342.0,478.0
9343.0,471.0
9344.0,506.0
9345.0,518.0
9346.0,513.0
9347.0,506.0
9348.0,475.0
9349.0,477.0
9350.0,496.0
9351.0,503.0
9352.0,524.0
9353.0,573.0
9354.000000000002,573.0
9355.0,560.0
9356.0,546.0
9357.0,518.0
9358.0,483.0
9359.0,454.0
9360.0,455.0
9361.0,468.0
9362.0,494.0
9363.0,521.0
9364.0,552.0
9365.0,584.0
9366.0,582.0
9367.0,594.0
9368.0,577.0
9369.0,551.0
9370.000000000002,511.0
9371.0,416.0
9372.0,403.0
9373.0,449.0
9374.0,440.0
9375.0,441.0
9376.0,431.0
9377.0,447.0
9378.0,475.0
9379.0,501.0
9380.0,534.0
9381.0,554.0
9382.0,576.0
9383.0,592.0
9384.0,582.0
9385.0,555.0
9386.000000000002,557.0
9387.0,548.0
9388.0,519.0
9389.0,499.0
9390.0,465.0
9391.0,433.0
9392.0,436.0
9393.0,471.0
9394.0,502.0
9395.0,512.0
9396.0,526.0
9397.0,537.0
9398.0,521.0
9399.0,558.0
9400.0,577.0
9401.0,504.0
9402.000000000002,465.0
9403.0,451.0
9404.0,467.0
9405.0,504.0
9406.0,498.0
9407.0,496.0
9408.0,487.0
9409.0,496.0
9410.0,521.0
9411.0,543.0
9412.0,547.0
9413.0,563.0
9414.0,551.0
9415.000000000002,521.0
9416.0,494.0
9417.0,465.0
9418.000000000002,486.0
9419.0,493.0
9420.0,512.0
9421.0,530.0
9422.0,515.0
9423.0,505.0
9424.0,509.0
9425.0,504.0
9426.0,489.0
9427.0,455.0
9428.0,443.0
9429.0,449.0
9430.0,456.0
9431.000000000002,483.0
9432.0,513.0
9433.0,546.0
9434.000000000002,574.0
9435.0,609.0
9436.0,608.0
9437.0,584.0
9438.0,555.0
9439.0,552.0
9440.0,553.0
9441.0,526.0
9442.0,468.0
9443.0,427.0
9444.0,396.0
9445.0,413.0
9446.0,440.0
9447.000000000002,447.0
9448.0,477.0
9449.0,521.0
9450.000000000002,555.0
9451.0,589.0
9452.0,604.0
9453.0,587.0
9454.0,566.0
9455.0,583.0
9456.0,574.0
9457.0,536.0
9458.0,502.0
9459.0,492.0
9460.0,480.0
9461.0,427.0
9462.0,414.0
9463.000000000002,429.0
9464.0,471.0
9465.0,489.0
9466.000000000002,517.0
9467.0,519.0
9468.0,456.0
9469.0,435.0
9470.0,457.0
9471.0,493.0
9472.0,525.0
9473.0,556.0
9474.0,567.0
9475.0,561.0
9476.0,522.0
9477.0,518.0
9478.0,516.0
9479.000000000002,513.0
9480.0,532.0
9481.0,502.0
9482.0,511.0
9483.0,506.0
9484.0,490.0
9485.0,495.0
9486.0,513.0
9487.0,531.0
9488.0,536.0
9489.0,522.0
9490.0,504.0
9491.0,511.0
9492.0,518.0
9493.0,519.0
9494.0,510.0
9495.000000000002,504.0
9496.0,499.0
9497.0,498.0
9498.0,506.0
9499.0,514.0
9500.0,545.0
9501.0,535.0
9502.0,520.0
9503.0,518.0
9504.0,498.0
9505.0,477.0
9506.0,454.0
9507.0,461.0
9508.0,465.0
9509.0,471.0
9510.0,502.0
9511.000000000002,511.0
9512.0,535.0
9513.0,533.0
9514.0,497.0
9515.0,513.0
9516.0,534.0
9517.0,524.0
9518.0,520.0
9519.0,522.0
9520.0,547.0
9521.0,562.0
9522.0,553.0
9523.0,516.0
9524.0,457.0
9525.0,430.0
9526.0,472.0
9527.000000000002,487.0
9528.0,482.0
9529.0,494.0
9530.0,523.0
9531.0,525.0
9532.0,521.0
9533.0,511.0
9534.0,535.0
9535.0,533.0
9536.0,516.0
9537.0,512.0
9538.0,523.0
9539.0,524.0
9540.000000000002,515.0
9541.0,511.0
9542.0,508.0
9543.000000000002,471.0
9544.0,459.0
9545.0,482.0
9546.0,481.0
9547.0,481.0
9548.0,501.0
9549.0,537.0
9550.0,579.0
9551.0,584.0
9552.0,570.0
9553.0,560.0
9554.0,519.0
9555.0,493.0
9556.000000000002,478.0
9557.0,485.0
9558.0,480.0
9559.000000000002,478.0
9560.0,487.0
9561.0,499.0
9562.0,509.0
9563.0,511.0
9564.0,501.0
9565.0,515.0
9566.0,528.0
9567.0,530.0
9568.0,532.0
9569.0,530.0
9570.0,517.0
9571.0,524.0
9572.000000000002,503.0
9573.0,476.0
9574.0,466.0
9575.000000000002,473.0
9576.0,480.0
9577.0,497.0
9578.0,511.0
9579.0,517.0
9580.0,519.0
9581.0,516.0
9582.0,509.0
9583.0,513.0
9584.0,521.0
9585.0,510.0
9586.0,516.0
9587.0,511.0
9588.000000000002,505.0
9589.0,515.0
9590.0,528.0
9591.000000000002,473.0
9592.0,473.0
9593.0,494.0
9594.0,492.0
9595.0,516.0
9596.0,540.0
9597.0,543.0
9598.0,558.0
9599.0,542.0
9600.0,548.0
9601.0,533.0
9602.0,519.0
9603.0,495.0
9604.000000000002,483.0
9605.0,472.0
9606.0,461.0
9607.0,476.0
9608.0,495.0
9609.0,512.0
9610.0,517.0
9611.0,519.0
9612.0,520.0
9613.0,510.0
9614.0,525.0
9615.0,531.0
9616.0,535.0
9617.0,537.0
9618.0,505.0
9619.0,440.0
9620.000000000002,425.0
9621.0,465.0
9622.0,503.0
9623.0,508.0
9624.0,499.0
9625.0,482.0
9626.0,483.0
9627.0,496.0
9628.0,484.0
9629.0,473.0
9630.0,534.0
9631.0,581.0
9632.0,604.0
9633.0,560.0
9634.0,574.0
9635.0,556.0
9636.000000000002,535.0
9637.0,492.0
9638.0,492.0
9639.0,510.0
9640.0,519.0
9641.0,499.0
9642.0,476.0
9643.0,475.0
9644.0,488.0
9645.0,499.0
9646.0,509.0
9647.0,509.0
9648.0,506.0
9649.0,505.0
9650.0,505.0
9651.0,513.0
9652.000000000002,507.0
9653.0,507.0
9654.0,519.0
9655.0,527.0
9656.0,511.0
9657.0,490.0
9658.0,497.0
9659.0,494.0
9660.0,483.0
9661.0,478.0
9662.0,487.0
9663.0,483.0
9664.0,506.0
9665.000000000002,544.0
9666.0,554.0
9667.0,548.0
9668.000000000002,529.0
9669.0,558.0
9670.0,555.0
9671.0,521.0
9672.0,511.0
9673.0,497.0
9674.0,476.0
9675.0,493.0
9676.0,508.0
9677.0,502.0
9678.0,481.0
9679.0,456.0
9680.0,438.0
9681.000000000002,444.0
9682.0,472.0
9683.0,503.0
9684.000000000002,543.0
9685.0,578.0
9686.0,589.0
9687.0,550.0
9688.0,541.0
9689.0,539.0
9690.0,504.0
9691.0,494.0
9692.0,488.0
9693.0,476.0
9694.0,487.0
9695.0,501.0
9696.0,514.0
9697.000000000002,520.0
9698.0,512.0
9699.0,515.0
9700.000000000002,528.0
9701.0,531.0
9702.0,529.0
9703.0,520.0
9704.0,490.0
9705.0,477.0
9706.0,471.0
9707.0,487.0
9708.0,497.0
9709.0,501.0
9710.0,484.0
9711.0,470.0
9712.0,498.0
9713.000000000002,507.0
9714.0,513.0
9715.0,530.0
9716.000000000002,550.0
9717.0,574.0
9718.0,565.0
9719.0,543.0
9720.0,533.0
9721.0,537.0
9722.0,544.0
9723.0,547.0
9724.0,524.0
9725.0,518.0
9726.0,499.0
9727.0,492.0
9728.0,481.0
9729.000000000002,455.0
9730.0,449.0
9731.0,428.0
9732.0,442.0
9733.0,451.0
9734.0,452.0
9735.0,479.0
9736.0,486.0
9737.0,519.0
9738.0,558.0
9739.0,586.0
9740.0,604.0
9741.0,580.0
9742.0,526.0
9743.0,510.0
9744.0,491.0
9745.000000000002,494.0
9746.0,473.0
9747.0,480.0
9748.0,501.0
9749.0,513.0
9750.0,515.0
9751.0,509.0
9752.0,527.0
9753.0,521.0
9754.0,521.0
9755.0,526.0
9756.0,500.0
9757.0,482.0
9758.0,496.0
9759.0,502.0
9760.0,511.0
9761.000000000002,510.0
9762.0,535.0
9763.0,551.0
9764.0,518.0
9765.0,506.0
9766.0,489.0
9767.0,472.0
9768.0,476.0
9769.0,485.0
9770.0,506.0
9771.0,535.0
9772.0,563.0
9773.0,551.0
9774.0,538.0
9775.0,511.0
9776.0,487.0
9777.000000000002,457.0
9778.0,438.0
9779.0,454.0
9780.0,481.0
9781.0,530.0
9782.0,570.0
9783.0,600.0
9784.0,550.0
9785.0,470.0
9786.0,472.0
9787.0,499.0
9788.0,469.0
9789.0,463.0
9790.000000000002,509.0
9791.0,551.0
9792.0,625.0
9793.000000000002,597.0
9794.0,577.0
9795.0,537.0
9796.0,505.0
9797.0,481.0
9798.0,469.0
9799.0,478.0
9800.0,484.0
9801.0,490.0
9802.0,494.0
9803.0,492.0
9804.0,467.0
9805.0,455.0
9806.000000000002,449.0
9807.0,452.0
9808.0,449.0
9809.000000000002,491.0
9810.0,519.0
9811.0,555.0
9812.0,584.0
9813.0,561.0
9814.0,517.0
9815.0,488.0
9816.0,466.0
9817.0,476.0
9818.0,492.0
9819.0,513.0
9820.0,560.0
9821.0,586.0
9822.000000000002,556.0
9823.0,554.0
9824.0,527.0
9825.000000000002,497.0
9826.0,497.0
9827.0,480.0
9828.0,450.0
9829.0,470.0
9830.0,488.0
9831.0,456.0
9832.0,485.0
9833.0,482.0
9834.0,490.0
9835.0,527.0
9836.0,566.0
9837.0,570.0
9838.000000000002,567.0
9839.0,559.0
9840.0,555.0
9841.000000000002,518.0
9842.0,533.0
9843.0,530.0
9844.0,505.0
9845.0,490.0
9846.0,488.0
9847.0,479.0
9848.0,484.0
9849.0,504.0
9850.0,508.0
9851.0,518.0
9852.0,515.0
9853.0,526.0
9854.000000000002,502.0
9855.0,508.0
9856.0,486.0
9857.0,479.0
9858.0,491.0
9859.0,497.0
9860.0,492.0
9861.0,479.0
9862.0,489.0
9863.0,512.0
9864.0,508.0
9865.0,530.0
9866.0,543.0
9867.0,535.0
9868.0,513.0
9869.0,501.0
9870.000000000002,519.0
9871.0,526.0
9872.0,525.0
9873.0,524.0
9874.0,506.0
9875.0,502.0
9876.0,511.0
9877.0,501.0
9878.0,506.0
9879.0,521.0
9880.0,504.0
9881.0,478.0
9882.0,480.0
9883.0,470.0
9884.0,391.0
9885.0,418.0
9886.000000000002,486.0
9887.0,534.0
9888.0,554.0
9889.0,555.0
9890.0,618.0
9891.0,611.0
9892.0,527.0
9893.0,543.0
9894.0,514.0
9895.0,476.0
9896.0,474.0
9897.0,470.0
9898.0,452.0
9899.0,465.0
9900.0,519.0
9901.0,558.0
9902.000000000002,590.0
9903.0,587.0
9904.0,544.0
9905.0,522.0
9906.0,505.0
9907.0,491.0
9908.0,468.0
9909.0,464.0
9910.0,470.0
9911.0,480.0
9912.0,480.0
9913.0,480.0
9914.0,502.0
9915.000000000002,515.0
9916.0,518.0
9917.0,518.0
9918.000000000002,530.0
9919.0,532.0
9920.0,521.0
9921.0,504.0
9922.0,506.0
9923.0,499.0
9924.0,494.0
9925.0,503.0
9926.0,499.0
9927.0,519.0
9928.0,523.0
9929.0,515.0
9930.0,501.0
9931.000000000002,510.0
9932.0,531.0
9933.0,539.0
9934.000000000002,566.0
9935.0,551.0
9936.0,518.0
9937.0,503.0
9938.0,497.0
9939.0,492.0
9940.0,460.0
9941.0,449.0
9942.0,447.0
9943.0,464.0
9944.0,491.0
9945.0,499.0
9946.0,512.0
9947.000000000002,539.0
9948.0,543.0
9949.0,570.0
9950.000000000002,574.0
9951.0,542.0
9952.0,503.0
9953.0,454.0
9954.0,473.0
9955.0,515.0
9956.0,516.0
9957.0,504.0
9958.0,494.0
9959.0,507.0
9960.0,515.0
9961.0,518.0
9962.0,526.0
9963.000000000002,520.0
9964.0,517.0
9965.0,512.0
9966.000000000002,499.0
9967.0,508.0
9968.0,501.0
9969.0,486.0
9970.0,489.0
9971.0,468.0
9972.0,449.0
9973.0,472.0
9974.0,492.0
9975.0,503.0
9976.0,525.0
9977.0,507.0
9978.0,499.0
9979.000000000002,480.0
9980.0,492.0
9981.0,499.0
9982.000000000002,541.0
9983.0,591.0
9984.0,608.0
9985.0,631.0
9986.0,588.0
9987.0,573.0
9988.0,538.0
9989.0,527.0
9990.0,503.0
9991.0,478.0
9992.0,475.0
9993.0,493.0
9994.0,478.0
9995.000000000002,475.0
9996.0,466.0
9997.0,457.0
9998.0,482.0
9999.0,518.0
