tiempo,valor
12000.0,514.0
12001.0,512.0
12002.0,511.0
12003.0,507.0
12004.0,499.0
12005.0,496.0
12006.0,504.0
12007.0,508.0
12008.0,504.0
12009.0,504.0
12010.0,504.0
12011.000000000002,511.0
12012.0,517.0
12013.0,518.0
12014.000000000002,516.0
12015.0,514.0
12016.0,512.0
12017.0,510.0
12018.0,512.0
12019.0,509.0
12020.0,505.0
12021.0,502.0
12022.0,501.0
12023.0,504.0
12024.0,504.0
12025.0,507.0
12026.0,509.0
12027.000000000002,512.0
12028.0,514.0
12029.0,517.0
12030.000000000002,517.0
12031.0,514.0
12032.0,512.0
12033.0,515.0
12034.0,515.0
12035.0,514.0
12036.0,510.0
12037.0,505.0
12038.0,495.0
12039.0,487.0
12040.000000000002,495.0
12041.0,500.0
12042.0,504.0
12043.000000000002,507.0
12044.0,513.0
12045.0,516.0
12046.0,519.0
12047.0,521.0
12048.0,520.0
12049.0,513.0
12050.0,512.0
12051.0,510.0
12052.0,510.0
12053.0,508.0
12054.0,503.0
12055.0,498.0
12056.000000000002,499.0
12057.0,499.0
12058.0,502.0
12059.000000000002,507.0
12060.0,510.0
12061.0,515.0
12062.0,516.0
12063.0,520.0
12064.0,516.0
12065.0,515.0
12066.0,516.0
12067.0,514.0
12068.0,508.0
12069.0,507.0
12070.0,505.0
12071.0,500.0
12072.000000000002,499.0
12073.0,503.0
12074.0,503.0
12075.000000000002,507.0
12076.0,510.0
12077.0,512.0
12078.0,518.0
12079.0,518.0
12080.0,515.0
12081.0,517.0
12082.0,515.0
12083.0,503.0
12084.0,502.0
12085.0,508.0
12086.0,509.0
12087.0,500.0
12088.000000000002,496.0
12089.0,500.0
12090.0,504.0
12091.000000000002,508.0
12092.0,506.0
12093.0,509.0
12094.0,512.0
12095.0,515.0
12096.0,520.0
12097.0,518.0
12098.0,514.0
12099.0,515.0
12100.0,512.0
12101.0,512.0
12102.0,510.0
12103.0,506.0
12104.000000000002,499.0
12105.0,496.0
12106.0,499.0
12107.000000000002,504.0
12108.0,505.0
12109.0,507.0
12110.0,507.0
12111.0,513.0
12112.0,516.0
12113.0,516.0
12114.0,514.0
12115.0,514.0
12116.0,514.0
12117.0,513.0
12118.0,512.0
12119.0,511.0
12120.000000000002,504.0
12121.0,500.0
12122.0,500.0
12123.000000000002,501.0
12124.0,506.0
12125.0,505.0
12126.0,506.0
12127.0,510.0
12128.0,513.0
12129.0,519.0
12130.0,519.0
12131.0,518.0
12132.0,515.0
12133.0,511.0
12134.0,511.0
12135.0,508.0
12136.000000000002,507.0
12137.0,504.0
12138.0,497.0
12139.000000000002,499.0
12140.0,503.0
12141.0,506.0
12142.0,507.0
12143.0,510.0
12144.0,513.0
12145.0,513.0
12146.0,514.0
12147.0,515.0
12148.0,515.0
12149.0,513.0
12150.0,511.0
12151.0,509.0
12152.000000000002,508.0
12153.0,506.0
12154.0,502.0
12155.000000000002,499.0
12156.0,502.0
12157.0,503.0
12158.0,504.0
12159.0,505.0
12160.0,509.0
12161.0,510.0
12162.0,518.0
12163.0,520.0
12164.0,517.0
12165.000000000002,516.0
12166.0,515.0
12167.0,514.0
12168.000000000002,508.0
12169.0,504.0
12170.0,504.0
12171.0,500.0
12172.0,499.0
12173.0,500.0
12174.0,505.0
12175.0,507.0
12176.0,507.0
12177.0,511.0
12178.0,513.0
12179.0,515.0
12180.0,519.0
12181.000000000002,520.0
12182.0,514.0
12183.0,511.0
12184.000000000002,510.0
12185.0,508.0
12186.0,504.0
12187.0,502.0
12188.0,499.0
12189.0,500.0
12190.0,501.0
12191.0,503.0
12192.0,508.0
12193.0,509.0
12194.0,511.0
12195.0,515.0
12196.0,520.0
12197.000000000002,520.0
12198.0,515.0
12199.0,517.0
12200.000000000002,512.0
12201.0,510.0
12202.0,507.0
12203.0,507.0
12204.0,500.0
12205.0,498.0
12206.0,497.0
12207.0,504.0
12208.0,505.0
12209.0,509.0
12210.0,511.0
12211.0,511.0
12212.0,515.0
12213.000000000002,519.0
12214.0,519.0
12215.0,516.0
12216.000000000002,514.0
12217.0,511.0
12218.0,508.0
12219.0,507.0
12220.0,504.0
12221.0,498.0
12222.0,498.0
12223.0,499.0
12224.0,503.0
12225.0,507.0
12226.0,508.0
12227.0,509.0
12228.0,513.0
12229.000000000002,521.0
12230.0,519.0
12231.0,517.0
12232.000000000002,517.0
12233.0,513.0
12234.0,507.0
12235.0,503.0
12236.0,506.0
12237.0,502.0
12238.0,497.0
12239.0,498.0
12240.0,500.0
12241.0,504.0
12242.0,507.0
12243.0,510.0
12244.0,513.0
12245.000000000002,519.0
12246.0,522.0
12247.0,523.0
12248.000000000002,518.0
12249.0,515.0
12250.0,508.0
12251.0,506.0
12252.0,503.0
12253.0,499.0
12254.0,499.0
12255.0,498.0
12256.0,500.0
12257.0,505.0
12258.0,507.0
12259.0,507.0
12260.0,509.0
12261.000000000002,512.0
12262.0,518.0
12263.0,520.0
12264.000000000002,519.0
12265.0,516.0
12266.0,515.0
12267.0,511.0
12268.0,510.0
12269.0,507.0
12270.0,504.0
12271.0,499.0
12272.0,497.0
12273.0,502.0
12274.0,502.0
12275.0,507.0
12276.0,511.0
12277.000000000002,511.0
12278.0,514.0
12279.0,520.0
12280.000000000002,521.0
12281.0,514.0
12282.0,513.0
12283.0,515.0
12284.0,513.0
12285.0,507.0
12286.0,504.0
12287.0,499.0
12288.0,498.0
12289.0,501.0
12290.000000000002,502.0
12291.0,504.0
12292.0,507.0
12293.000000000002,510.0
12294.0,511.0
12295.0,516.0
12296.0,518.0
12297.0,519.0
12298.0,516.0
12299.0,514.0
12300.0,511.0
12301.0,508.0
12302.0,507.0
12303.0,504.0
12304.0,498.0
12305.0,498.0
12306.000000000002,503.0
12307.0,504.0
12308.0,505.0
12309.000000000002,508.0
12310.0,508.0
12311.0,513.0
12312.0,514.0
12313.0,520.0
12314.0,518.0
12315.0,517.0
12316.0,514.0
12317.0,511.0
12318.0,506.0
12319.0,505.0
12320.0,502.0
12321.0,500.0
12322.000000000002,498.0
12323.0,502.0
12324.0,505.0
12325.000000000002,505.0
12326.0,509.0
12327.0,507.0
12328.0,513.0
12329.0,517.0
12330.0,518.0
12331.0,516.0
12332.0,515.0
12333.0,515.0
12334.0,512.0
12335.0,511.0
12336.0,508.0
12337.0,501.0
12338.000000000002,496.0
12339.0,497.0
12340.0,502.0
12341.000000000002,503.0
12342.0,506.0
12343.0,508.0
12344.0,512.0
12345.0,518.0
12346.0,523.0
12347.0,521.0
12348.0,515.0
12349.0,511.0
12350.0,513.0
12351.0,507.0
12352.0,507.0
12353.0,507.0
12354.000000000002,502.0
12355.0,500.0
12356.0,501.0
12357.000000000002,501.0
12358.0,502.0
12359.0,503.0
12360.0,506.0
12361.0,512.0
12362.0,518.0
12363.0,520.0
12364.0,521.0
12365.0,516.0
12366.0,512.0
12367.0,512.0
12368.0,510.0
12369.0,508.0
12370.000000000002,507.0
12371.0,499.0
12372.0,499.0
12373.000000000002,500.0
12374.0,504.0
12375.0,507.0
12376.0,508.0
12377.0,508.0
12378.0,512.0
12379.0,517.0
12380.0,519.0
12381.0,515.0
12382.0,514.0
12383.0,513.0
12384.0,513.0
12385.0,511.0
12386.000000000002,507.0
12387.0,501.0
12388.0,497.0
12389.000000000002,499.0
12390.0,501.0
12391.0,505.0
12392.0,506.0
12393.0,507.0
12394.0,510.0
12395.0,513.0
12396.0,518.0
12397.0,518.0
12398.0,517.0
12399.0,512.0
12400.0,513.0
12401.0,512.0
12402.000000000002,508.0
12403.0,507.0
12404.0,502.0
12405.000000000002,497.0
12406.0,499.0
12407.0,501.0
12408.0,505.0
12409.0,508.0
12410.0,510.0
12411.0,514.0
12412.0,517.0
12413.0,519.0
12414.0,516.0
12415.000000000002,516.0
12416.0,516.0
12417.0,514.0
12418.000000000002,511.0
12419.0,507.0
12420.0,505.0
12421.0,499.0
12422.0,500.0
12423.0,504.0
12424.0,504.0
12425.0,506.0
12426.0,502.0
12427.0,504.0
12428.0,513.0
12429.0,520.0
12430.0,521.0
12431.000000000002,513.0
12432.0,515.0
12433.0,515.0
12434.000000000002,513.0
12435.0,509.0
12436.0,508.0
12437.0,503.0
12438.0,500.0
12439.0,500.0
12440.0,503.0
12441.0,505.0
12442.0,505.0
12443.0,509.0
12444.0,511.0
12445.0,515.0
12446.0,518.0
12447.000000000002,521.0
12448.0,520.0
12449.0,518.0
12450.000000000002,515.0
12451.0,514.0
12452.0,508.0
12453.0,499.0
12454.0,492.0
12455.0,495.0
12456.0,500.0
12457.0,503.0
12458.0,508.0
12459.0,510.0
12460.0,512.0
12461.0,514.0
12462.0,513.0
12463.000000000002,516.0
12464.0,515.0
12465.0,516.0
12466.000000000002,515.0
12467.0,513.0
12468.0,509.0
12469.0,507.0
12470.0,502.0
12471.0,498.0
12472.0,498.0
12473.0,500.0
12474.0,506.0
12475.0,511.0
12476.0,508.0
12477.0,510.0
12478.0,513.0
12479.000000000002,517.0
12480.0,519.0
12481.0,519.0
12482.000000000002,515.0
12483.0,512.0
12484.0,512.0
12485.0,511.0
12486.0,507.0
12487.0,501.0
12488.0,497.0
12489.0,499.0
12490.0,503.0
12491.0,504.0
12492.0,507.0
12493.0,510.0
12494.0,510.0
12495.000000000002,515.0
12496.0,518.0
12497.0,519.0
12498.000000000002,519.0
12499.0,515.0
12500.0,512.0
12501.0,511.0
12502.0,507.0
12503.0,508.0
12504.0,502.0
12505.0,496.0
12506.0,492.0
12507.0,499.0
12508.0,507.0
12509.0,510.0
12510.0,511.0
12511.000000000002,515.0
12512.0,517.0
12513.0,516.0
12514.000000000002,516.0
12515.0,512.0
12516.0,516.0
12517.0,516.0
12518.0,509.0
12519.0,510.0
12520.0,501.0
12521.0,500.0
12522.0,498.0
12523.0,501.0
12524.0,505.0
12525.0,508.0
12526.0,510.0
12527.000000000002,508.0
12528.0,511.0
12529.0,515.0
12530.000000000002,519.0
12531.0,519.0
12532.0,516.0
12533.0,514.0
12534.0,512.0
12535.0,509.0
12536.0,505.0
12537.0,503.0
12538.0,499.0
12539.0,500.0
12540.000000000002,502.0
12541.0,506.0
12542.0,505.0
12543.000000000002,507.0
12544.0,512.0
12545.0,518.0
12546.0,520.0
12547.0,518.0
12548.0,512.0
12549.0,509.0
12550.0,508.0
12551.0,508.0
12552.0,508.0
12553.0,505.0
12554.0,501.0
12555.0,498.0
12556.000000000002,499.0
12557.0,504.0
12558.0,507.0
12559.000000000002,510.0
12560.0,510.0
12561.0,512.0
12562.0,516.0
12563.0,520.0
12564.0,520.0
12565.0,519.0
12566.0,512.0
12567.0,512.0
12568.0,510.0
12569.0,506.0
12570.0,500.0
12571.0,500.0
12572.000000000002,499.0
12573.0,504.0
12574.0,507.0
12575.000000000002,503.0
12576.0,504.0
12577.0,505.0
12578.0,510.0
12579.0,517.0
12580.0,522.0
12581.0,518.0
12582.0,517.0
12583.0,514.0
12584.0,512.0
12585.0,509.0
12586.0,508.0
12587.0,501.0
12588.000000000002,499.0
12589.0,498.0
12590.0,500.0
12591.000000000002,503.0
12592.0,505.0
12593.0,509.0
12594.0,510.0
12595.0,511.0
12596.0,519.0
12597.0,517.0
12598.0,518.0
12599.0,519.0
12600.0,514.0
12601.0,512.0
12602.0,511.0
12603.0,509.0
12604.000000000002,501.0
12605.0,498.0
12606.0,500.0
12607.000000000002,502.0
12608.0,504.0
12609.0,505.0
12610.0,508.0
12611.0,510.0
12612.0,515.0
12613.0,521.0
12614.0,519.0
12615.0,518.0
12616.0,511.0
12617.0,508.0
12618.0,508.0
12619.0,507.0
12620.000000000002,505.0
12621.0,500.0
12622.0,498.0
12623.000000000002,502.0
12624.0,505.0
12625.0,510.0
12626.0,508.0
12627.0,506.0
12628.0,508.0
12629.0,515.0
12630.0,517.0
12631.0,512.0
12632.0,511.0
12633.0,511.0
12634.0,508.0
12635.0,507.0
12636.000000000002,508.0
12637.0,507.0
12638.0,504.0
12639.000000000002,504.0
12640.0,509.0
12641.0,510.0
12642.0,510.0
12643.0,509.0
12644.0,513.0
12645.0,518.0
12646.0,519.0
12647.0,517.0
12648.0,515.0
12649.0,508.0
12650.0,510.0
12651.0,508.0
12652.000000000002,506.0
12653.0,506.0
12654.0,498.0
12655.000000000002,496.0
12656.0,499.0
12657.0,503.0
12658.0,504.0
12659.0,507.0
12660.0,508.0
12661.0,512.0
12662.0,515.0
12663.0,518.0
12664.0,519.0
12665.000000000002,517.0
12666.0,514.0
12667.0,513.0
12668.000000000002,511.0
12669.0,508.0
12670.0,504.0
12671.000000000002,497.0
12672.0,497.0
12673.0,501.0
12674.0,503.0
12675.0,505.0
12676.0,507.0
12677.0,508.0
12678.0,513.0
12679.0,517.0
12680.0,522.0
12681.000000000002,518.0
12682.0,515.0
12683.0,513.0
12684.000000000002,510.0
12685.0,511.0
12686.0,511.0
12687.0,511.0
12688.0,500.0
12689.0,497.0
12690.0,492.0
12691.0,495.0
12692.0,507.0
12693.0,511.0
12694.0,509.0
12695.0,514.0
12696.0,515.0
12697.000000000002,517.0
12698.0,516.0
12699.0,513.0
12700.000000000002,514.0
12701.0,513.0
12702.0,507.0
12703.0,505.0
12704.0,501.0
12705.0,499.0
12706.0,502.0
12707.0,504.0
12708.0,503.0
12709.0,507.0
12710.0,510.0
12711.0,513.0
12712.0,516.0
12713.000000000002,519.0
12714.0,519.0
12715.0,519.0
12716.000000000002,512.0
12717.0,511.0
12718.0,507.0
12719.0,508.0
12720.0,506.0
12721.0,499.0
12722.0,499.0
12723.0,502.0
12724.0,504.0
12725.0,503.0
12726.0,503.0
12727.0,508.0
12728.0,512.0
12729.000000000002,517.0
12730.0,518.0
12731.0,521.0
12732.000000000002,516.0
12733.0,515.0
12734.0,513.0
12735.0,513.0
12736.0,509.0
12737.0,504.0
12738.0,499.0
12739.0,500.0
12740.0,503.0
12741.0,505.0
12742.0,503.0
12743.0,501.0
12744.0,503.0
12745.000000000002,511.0
12746.0,518.0
12747.0,519.0
12748.000000000002,517.0
12749.0,519.0
12750.0,519.0
12751.0,518.0
12752.0,514.0
12753.0,512.0
12754.0,507.0
12755.0,496.0
12756.0,500.0
12757.0,506.0
12758.0,500.0
12759.0,498.0
12760.0,502.0
12761.000000000002,512.0
12762.0,514.0
12763.0,515.0
12764.000000000002,517.0
12765.0,515.0
12766.0,513.0
12767.0,511.0
12768.0,508.0
12769.0,508.0
12770.0,506.0
12771.0,501.0
12772.0,499.0
12773.0,500.0
12774.0,505.0
12775.0,508.0
12776.0,505.0
12777.000000000002,507.0
12778.0,510.0
12779.0,516.0
12780.000000000002,519.0
12781.0,516.0
12782.0,514.0
12783.0,512.0
12784.0,513.0
12785.0,509.0
12786.0,510.0
12787.0,507.0
12788.0,500.0
12789.0,501.0
12790.000000000002,505.0
12791.0,502.0
12792.0,505.0
12793.000000000002,506.0
12794.0,508.0
12795.0,511.0
12796.000000000002,515.0
12797.0,518.0
12798.0,515.0
12799.0,515.0
12800.0,512.0
12801.0,512.0
12802.0,509.0
12803.0,507.0
12804.0,500.0
12805.0,500.0
12806.000000000002,503.0
12807.0,505.0
12808.0,507.0
12809.000000000002,507.0
12810.0,509.0
12811.0,508.0
12812.0,512.0
12813.0,515.0
12814.0,515.0
12815.0,513.0
12816.0,513.0
12817.0,513.0
12818.0,510.0
12819.0,509.0
12820.0,508.0
12821.0,504.0
12822.000000000002,500.0
12823.0,499.0
12824.0,502.0
12825.000000000002,507.0
12826.0,512.0
12827.0,513.0
12828.0,514.0
12829.0,506.0
12830.0,509.0
12831.0,511.0
12832.0,514.0
12833.0,514.0
12834.0,511.0
12835.0,511.0
12836.0,496.0
12837.0,488.0
12838.000000000002,490.0
12839.0,491.0
12840.0,499.0
12841.000000000002,508.0
12842.0,517.0
12843.0,524.0
12844.0,526.0
12845.0,531.0
12846.0,519.0
12847.0,519.0
12848.0,524.0
12849.0,526.0
12850.0,527.0
12851.0,522.0
12852.0,511.0
12853.0,507.0
12854.000000000002,506.0
12855.0,503.0
12856.0,493.0
12857.000000000002,491.0
12858.0,500.0
12859.0,497.0
12860.0,497.0
12861.0,500.0
12862.0,500.0
12863.0,512.0
12864.0,515.0
12865.0,515.0
12866.0,518.0
12867.0,515.0
12868.0,515.0
12869.0,513.0
12870.000000000002,513.0
12871.0,508.0
12872.0,502.0
12873.000000000002,498.0
12874.0,498.0
12875.0,502.0
12876.0,503.0
12877.0,505.0
12878.0,506.0
12879.0,510.0
12880.0,513.0
12881.0,515.0
12882.0,519.0
12883.0,519.0
12884.0,517.0
12885.0,519.0
12886.000000000002,512.0
12887.0,507.0
12888.0,499.0
12889.000000000002,496.0
12890.0,499.0
12891.0,502.0
12892.0,507.0
12893.0,509.0
12894.0,510.0
12895.0,512.0
12896.0,514.0
12897.0,515.0
12898.0,515.0
12899.0,519.0
12900.0,517.0
12901.0,507.0
12902.000000000002,504.0
12903.0,501.0
12904.0,504.0
12905.000000000002,503.0
12906.0,504.0
12907.0,507.0
12908.0,507.0
12909.0,505.0
12910.0,506.0
12911.0,511.0
12912.0,515.0
12913.0,517.0
12914.0,516.0
12915.000000000002,518.0
12916.0,513.0
12917.0,508.0
12918.000000000002,501.0
12919.0,505.0
12920.0,508.0
12921.000000000002,505.0
12922.0,506.0
12923.0,503.0
12924.0,504.0
12925.0,504.0
12926.0,507.0
12927.0,505.0
12928.0,509.0
12929.0,513.0
12930.0,516.0
12931.000000000002,515.0
12932.0,514.0
12933.0,512.0
12934.000000000002,511.0
12935.0,508.0
12936.0,505.0
12937.0,505.0
12938.0,502.0
12939.0,499.0
12940.0,498.0
12941.0,500.0
12942.0,505.0
12943.0,509.0
12944.0,511.0
12945.0,513.0
12946.0,517.0
12947.000000000002,519.0
12948.0,519.0
12949.0,512.0
12950.000000000002,513.0
12951.0,509.0
12952.0,508.0
12953.0,508.0
12954.0,507.0
12955.0,506.0
12956.0,505.0
12957.0,507.0
12958.0,507.0
12959.0,506.0
12960.0,505.0
12961.0,507.0
12962.0,509.0
12963.000000000002,512.0
12964.0,512.0
12965.0,517.0
12966.000000000002,510.0
12967.0,507.0
12968.0,509.0
12969.0,507.0
12970.0,508.0
12971.0,504.0
12972.0,503.0
12973.0,502.0
12974.0,502.0
12975.0,507.0
12976.0,509.0
12977.0,509.0
12978.0,507.0
12979.000000000002,512.0
12980.0,513.0
12981.0,514.0
12982.000000000002,514.0
12983.0,513.0
12984.0,516.0
12985.0,514.0
12986.0,512.0
12987.0,511.0
12988.0,503.0
12989.0,505.0
12990.0,504.0
12991.0,497.0
12992.0,498.0
12993.0,500.0
12994.0,507.0
12995.000000000002,508.0
12996.0,513.0
12997.0,515.0
12998.000000000002,523.0
12999.0,527.0
13000.0,521.0
13001.0,510.0
13002.0,505.0
13003.0,506.0
13004.0,506.0
13005.0,502.0
13006.0,501.0
13007.0,500.0
13008.0,505.0
13009.0,508.0
13010.0,506.0
13011.000000000002,498.0
13012.0,500.0
13013.0,509.0
13014.000000000002,510.0
13015.0,511.0
13016.0,512.0
13017.0,525.0
13018.0,532.0
13019.0,527.0
13020.0,516.0
13021.0,509.0
13022.0,508.0
13023.0,503.0
13024.0,501.0
13025.0,503.0
13026.0,500.0
13027.000000000002,497.0
13028.0,504.0
13029.0,513.0
13030.000000000002,512.0
13031.0,508.0
13032.0,512.0
13033.0,521.0
13034.0,518.0
13035.0,502.0
13036.0,500.0
13037.0,509.0
13038.0,501.0
13039.0,501.0
13040.000000000002,501.0
13041.0,503.0
13042.0,509.0
13043.000000000002,516.0
13044.0,524.0
13045.0,522.0
13046.000000000002,518.0
13047.0,516.0
13048.0,513.0
13049.0,507.0
13050.0,506.0
13051.0,502.0
13052.0,497.0
13053.0,495.0
13054.0,495.0
13055.0,494.0
13056.000000000002,499.0
13057.0,511.0
13058.0,524.0
13059.000000000002,521.0
13060.0,516.0
13061.0,515.0
13062.0,524.0
13063.0,533.0
13064.0,530.0
13065.0,512.0
13066.0,505.0
13067.0,507.0
13068.0,505.0
13069.0,503.0
13070.0,504.0
13071.0,507.0
13072.000000000002,507.0
13073.0,501.0
13074.0,483.0
13075.000000000002,477.0
13076.0,479.0
13077.0,471.0
13078.0,491.0
13079.0,531.0
13080.0,575.0
13081.0,562.0
13082.0,533.0
13083.0,514.0
13084.0,510.0
13085.0,506.0
13086.0,505.0
13087.0,501.0
13088.000000000002,500.0
13089.0,497.0
13090.0,497.0
13091.000000000002,502.0
13092.0,506.0
13093.0,503.0
13094.0,507.0
13095.0,510.0
13096.0,512.0
13097.0,515.0
13098.0,512.0
13099.0,513.0
13100.0,512.0
13101.0,509.0
13102.0,508.0
13103.0,508.0
13104.000000000002,505.0
13105.0,503.0
13106.0,502.0
13107.000000000002,504.0
13108.0,509.0
13109.0,510.0
13110.0,506.0
13111.0,500.0
13112.0,503.0
13113.0,506.0
13114.0,492.0
13115.0,486.0
13116.0,504.0
13117.0,520.0
13118.0,536.0
13119.0,563.0
13120.000000000002,530.0
13121.0,499.0
13122.0,501.0
13123.000000000002,504.0
13124.0,510.0
13125.0,509.0
13126.0,507.0
13127.0,506.0
13128.0,504.0
13129.0,508.0
13130.0,512.0
13131.0,504.0
13132.0,495.0
13133.0,492.0
13134.0,502.0
13135.0,504.0
13136.000000000002,514.0
13137.0,531.0
13138.0,533.0
13139.000000000002,522.0
13140.0,511.0
13141.0,505.0
13142.0,511.0
13143.0,507.0
13144.0,505.0
13145.0,504.0
13146.0,507.0
13147.0,508.0
13148.0,506.0
13149.0,504.0
13150.0,511.0
13151.0,521.0
13152.000000000002,515.0
13153.0,510.0
13154.0,503.0
13155.000000000002,501.0
13156.0,505.0
13157.0,500.0
13158.0,498.0
13159.0,502.0
13160.0,507.0
13161.0,505.0
13162.0,507.0
13163.0,512.0
13164.0,514.0
13165.000000000002,521.0
13166.0,519.0
13167.0,516.0
13168.000000000002,515.0
13169.0,517.0
13170.0,513.0
13171.000000000002,501.0
13172.0,498.0
13173.0,486.0
13174.0,482.0
13175.0,504.0
13176.0,513.0
13177.0,515.0
13178.0,522.0
13179.0,511.0
13180.0,507.0
13181.000000000002,516.0
13182.0,517.0
13183.0,520.0
13184.000000000002,516.0
13185.0,514.0
13186.0,511.0
13187.0,510.0
13188.0,504.0
13189.0,497.0
13190.0,503.0
13191.0,508.0
13192.0,508.0
13193.0,507.0
13194.0,507.0
13195.0,503.0
13196.0,505.0
13197.000000000002,507.0
13198.0,511.0
13199.0,513.0
13200.000000000002,510.0
13201.0,507.0
13202.0,512.0
13203.0,515.0
13204.0,520.0
13205.0,514.0
13206.0,502.0
13207.0,504.0
13208.0,509.0
13209.0,509.0
13210.0,515.0
13211.0,514.0
13212.0,502.0
13213.000000000002,512.0
13214.0,512.0
13215.0,511.0
13216.000000000002,510.0
13217.0,509.0
13218.0,508.0
13219.0,506.0
13220.0,510.0
13221.0,511.0
13222.0,502.0
13223.0,498.0
13224.0,501.0
13225.0,504.0
13226.0,516.0
13227.0,524.0
13228.0,511.0
13229.000000000002,508.0
13230.0,513.0
13231.0,512.0
13232.000000000002,509.0
13233.0,507.0
13234.0,509.0
13235.0,509.0
13236.0,509.0
13237.0,507.0
13238.0,505.0
13239.0,504.0
13240.0,504.0
13241.0,508.0
13242.0,508.0
13243.0,508.0
13244.0,509.0
13245.000000000002,511.0
13246.0,512.0
13247.0,512.0
13248.000000000002,511.0
13249.0,510.0
13250.0,509.0
13251.0,508.0
13252.0,509.0
13253.0,510.0
13254.0,510.0
13255.0,509.0
13256.0,508.0
13257.0,511.0
13258.0,508.0
13259.0,509.0
13260.0,504.0
13261.000000000002,502.0
13262.0,507.0
13263.0,511.0
13264.000000000002,512.0
13265.0,510.0
13266.0,511.0
13267.0,512.0
13268.0,511.0
13269.0,512.0
13270.0,511.0
13271.0,508.0
13272.0,505.0
13273.0,505.0
13274.0,506.0
13275.0,508.0
13276.0,507.0
13277.000000000002,509.0
13278.0,508.0
13279.0,511.0
13280.000000000002,512.0
13281.0,511.0
13282.0,512.0
13283.0,512.0
13284.0,513.0
13285.0,513.0
13286.0,512.0
13287.0,509.0
13288.0,502.0
13289.0,499.0
13290.000000000002,497.0
13291.0,501.0
13292.0,506.0
13293.000000000002,516.0
13294.0,515.0
13295.0,509.0
13296.000000000002,509.0
13297.0,516.0
13298.0,522.0
13299.0,512.0
13300.0,505.0
13301.0,505.0
13302.0,510.0
13303.0,511.0
13304.0,504.0
13305.0,499.0
13306.000000000002,499.0
13307.0,500.0
13308.0,502.0
13309.000000000002,506.0
13310.0,508.0
13311.0,509.0
13312.000000000002,509.0
13313.0,508.0
13314.0,519.0
13315.0,522.0
13316.0,519.0
13317.0,516.0
13318.0,519.0
13319.0,509.0
13320.0,503.0
13321.0,498.0
13322.000000000002,503.0
13323.0,517.0
13324.0,510.0
13325.000000000002,503.0
13326.0,502.0
13327.0,503.0
13328.0,510.0
13329.0,516.0
13330.0,517.0
13331.0,512.0
13332.0,510.0
13333.0,511.0
13334.0,509.0
13335.0,510.0
13336.0,507.0
13337.0,509.0
13338.000000000002,506.0
13339.0,501.0
13340.0,503.0
13341.000000000002,509.0
13342.0,508.0
13343.0,507.0
13344.0,508.0
13345.0,510.0
13346.0,512.0
13347.0,515.0
13348.0,515.0
13349.0,513.0
13350.0,510.0
13351.0,509.0
13352.0,508.0
13353.0,510.0
13354.000000000002,507.0
13355.0,503.0
13356.0,502.0
13357.000000000002,504.0
13358.0,506.0
13359.0,509.0
13360.0,507.0
13361.0,508.0
13362.0,509.0
13363.0,512.0
13364.0,516.0
13365.0,515.0
13366.0,511.0
13367.0,515.0
13368.0,513.0
13369.0,510.0
13370.000000000002,509.0
13371.0,506.0
13372.0,499.0
13373.000000000002,498.0
13374.0,511.0
13375.0,508.0
13376.0,500.0
13377.0,506.0
13378.0,510.0
13379.0,510.0
13380.0,512.0
13381.0,513.0
13382.0,513.0
13383.0,515.0
13384.0,515.0
13385.0,510.0
13386.000000000002,505.0
13387.0,501.0
13388.0,497.0
13389.000000000002,501.0
13390.0,510.0
13391.0,508.0
13392.0,508.0
13393.0,509.0
13394.0,515.0
13395.0,511.0
13396.0,510.0
13397.0,511.0
13398.0,512.0
13399.0,511.0
13400.0,511.0
13401.0,512.0
13402.000000000002,513.0
13403.0,511.0
13404.0,502.0
13405.000000000002,500.0
13406.0,499.0
13407.0,505.0
13408.0,508.0
13409.0,514.0
13410.0,516.0
13411.0,511.0
13412.0,509.0
13413.0,508.0
13414.0,512.0
13415.000000000002,513.0
13416.0,512.0
13417.0,512.0
13418.000000000002,512.0
13419.0,511.0
13420.0,509.0
13421.000000000002,508.0
13422.0,506.0
13423.0,504.0
13424.0,505.0
13425.0,508.0
13426.0,508.0
13427.0,505.0
13428.0,503.0
13429.0,504.0
13430.0,511.0
13431.000000000002,514.0
13432.0,518.0
13433.0,516.0
13434.000000000002,513.0
13435.0,511.0
13436.0,510.0
13437.000000000002,507.0
13438.0,503.0
13439.0,505.0
13440.0,507.0
13441.0,508.0
13442.0,507.0
13443.0,504.0
13444.0,502.0
13445.0,505.0
13446.0,507.0
13447.000000000002,511.0
13448.0,520.0
13449.0,523.0
13450.000000000002,512.0
13451.0,505.0
13452.0,508.0
13453.0,512.0
13454.0,508.0
13455.0,506.0
13456.0,516.0
13457.0,512.0
13458.0,501.0
13459.0,500.0
13460.0,499.0
13461.0,499.0
13462.0,511.0
13463.000000000002,515.0
13464.0,514.0
13465.0,515.0
13466.000000000002,512.0
13467.0,513.0
13468.0,511.0
13469.0,510.0
13470.0,510.0
13471.0,509.0
13472.0,505.0
13473.0,504.0
13474.0,504.0
13475.0,503.0
13476.0,504.0
13477.0,507.0
13478.0,509.0
13479.000000000002,510.0
13480.0,512.0
13481.0,512.0
13482.000000000002,511.0
13483.0,512.0
13484.0,516.0
13485.0,515.0
13486.0,511.0
13487.0,511.0
13488.0,504.0
13489.0,500.0
13490.0,501.0
13491.0,504.0
13492.0,506.0
13493.0,506.0
13494.0,508.0
13495.000000000002,513.0
13496.0,515.0
13497.0,514.0
13498.000000000002,512.0
13499.0,513.0
13500.0,512.0
13501.0,508.0
13502.0,507.0
13503.0,507.0
13504.0,507.0
13505.0,508.0
13506.0,505.0
13507.0,504.0
13508.0,511.0
13509.0,508.0
13510.0,510.0
13511.000000000002,513.0
13512.0,509.0
13513.0,512.0
13514.000000000002,510.0
13515.0,510.0
13516.0,511.0
13517.0,509.0
13518.0,511.0
13519.0,510.0
13520.0,508.0
13521.0,504.0
13522.0,503.0
13523.0,504.0
13524.0,502.0
13525.0,506.0
13526.0,510.0
13527.000000000002,510.0
13528.0,510.0
13529.0,512.0
13530.000000000002,510.0
13531.0,507.0
13532.0,509.0
13533.0,509.0
13534.0,511.0
13535.0,516.0
13536.0,512.0
13537.0,514.0
13538.0,513.0
13539.0,514.0
13540.000000000002,507.0
13541.0,503.0
13542.0,502.0
13543.000000000002,503.0
13544.0,504.0
13545.0,508.0
13546.000000000002,514.0
13547.0,513.0
13548.0,513.0
13549.0,510.0
13550.0,511.0
13551.0,510.0
13552.0,509.0
13553.0,509.0
13554.0,509.0
13555.0,505.0
13556.000000000002,504.0
13557.0,504.0
13558.0,504.0
13559.000000000002,504.0
13560.0,504.0
13561.0,505.0
13562.000000000002,511.0
13563.0,512.0
13564.0,514.0
13565.0,513.0
13566.0,513.0
13567.0,512.0
13568.0,511.0
13569.0,511.0
13570.0,511.0
13571.0,509.0
13572.000000000002,503.0
13573.0,504.0
13574.0,505.0
13575.000000000002,506.0
13576.0,507.0
13577.0,509.0
13578.0,509.0
13579.0,510.0
13580.0,512.0
13581.0,514.0
13582.0,511.0
13583.0,511.0
13584.0,511.0
13585.0,510.0
13586.0,510.0
13587.0,508.0
13588.000000000002,504.0
13589.0,503.0
13590.0,507.0
13591.000000000002,507.0
13592.0,507.0
13593.0,507.0
13594.0,508.0
13595.0,511.0
13596.0,511.0
13597.0,515.0
13598.0,513.0
13599.0,512.0
13600.0,511.0
13601.0,509.0
13602.0,509.0
13603.0,509.0
13604.000000000002,508.0
13605.0,511.0
13606.0,508.0
13607.000000000002,506.0
13608.0,508.0
13609.0,508.0
13610.0,508.0
13611.0,509.0
13612.0,509.0
13613.0,508.0
13614.0,512.0
13615.0,512.0
13616.0,511.0
13617.0,510.0
13618.0,510.0
13619.0,511.0
13620.000000000002,509.0
13621.0,505.0
13622.0,500.0
13623.000000000002,502.0
13624.0,502.0
13625.0,504.0
13626.0,506.0
13627.0,504.0
13628.0,504.0
13629.0,508.0
13630.0,513.0
13631.0,516.0
13632.0,516.0
13633.0,515.0
13634.0,512.0
13635.0,510.0
13636.000000000002,509.0
13637.0,511.0
13638.0,506.0
13639.000000000002,506.0
13640.0,503.0
13641.0,503.0
13642.0,502.0
13643.0,505.0
13644.0,510.0
13645.0,510.0
13646.0,512.0
13647.0,515.0
13648.0,519.0
13649.0,518.0
13650.0,514.0
13651.0,511.0
13652.000000000002,507.0
13653.0,507.0
13654.0,505.0
13655.000000000002,503.0
13656.0,503.0
13657.0,503.0
13658.0,505.0
13659.0,507.0
13660.0,507.0
13661.0,508.0
13662.0,511.0
13663.0,513.0
13664.0,514.0
13665.000000000002,515.0
13666.0,515.0
13667.0,515.0
13668.000000000002,512.0
13669.0,511.0
13670.0,511.0
13671.000000000002,506.0
13672.0,504.0
13673.0,504.0
13674.0,505.0
13675.0,506.0
13676.0,505.0
13677.0,505.0
13678.0,505.0
13679.0,511.0
13680.0,516.0
13681.000000000002,517.0
13682.0,515.0
13683.0,511.0
13684.000000000002,511.0
13685.0,510.0
13686.0,509.0
13687.000000000002,506.0
13688.0,505.0
13689.0,502.0
13690.0,504.0
13691.0,503.0
13692.0,505.0
13693.0,505.0
13694.0,508.0
13695.0,512.0
13696.0,510.0
13697.000000000002,514.0
13698.0,515.0
13699.0,513.0
13700.000000000002,514.0
13701.0,510.0
13702.0,511.0
13703.0,510.0
13704.0,507.0
13705.0,504.0
13706.0,504.0
13707.0,504.0
13708.0,505.0
13709.0,506.0
13710.0,505.0
13711.0,507.0
13712.0,512.0
13713.000000000002,515.0
13714.0,515.0
13715.0,512.0
13716.000000000002,514.0
13717.0,508.0
13718.0,510.0
13719.0,511.0
13720.0,511.0
13721.0,507.0
13722.0,505.0
13723.0,504.0
13724.0,504.0
13725.0,505.0
13726.0,505.0
13727.0,507.0
13728.0,509.0
13729.000000000002,511.0
13730.0,515.0
13731.0,515.0
13732.000000000002,513.0
13733.0,511.0
13734.0,513.0
13735.0,509.0
13736.0,510.0
13737.0,508.0
13738.0,504.0
13739.0,502.0
13740.0,504.0
13741.0,507.0
13742.0,509.0
13743.0,509.0
13744.0,506.0
13745.000000000002,503.0
13746.0,502.0
13747.0,506.0
13748.000000000002,511.0
13749.0,513.0
13750.0,515.0
13751.0,512.0
13752.0,513.0
13753.0,515.0
13754.0,512.0
13755.0,510.0
13756.0,510.0
13757.0,511.0
13758.0,510.0
13759.0,508.0
13760.0,507.0
13761.000000000002,506.0
13762.0,508.0
13763.0,506.0
13764.000000000002,503.0
13765.0,500.0
13766.0,502.0
13767.0,506.0
13768.0,507.0
13769.0,513.0
13770.0,513.0
13771.0,511.0
13772.0,513.0
13773.0,513.0
13774.0,514.0
13775.0,516.0
13776.0,516.0
13777.000000000002,519.0
13778.0,518.0
13779.0,519.0
13780.000000000002,514.0
13781.0,508.0
13782.0,505.0
13783.0,502.0
13784.0,500.0
13785.0,500.0
13786.0,500.0
13787.0,503.0
13788.0,498.0
13789.0,498.0
13790.000000000002,502.0
13791.0,506.0
13792.0,507.0
13793.000000000002,510.0
13794.0,515.0
13795.0,516.0
13796.000000000002,522.0
13797.0,520.0
13798.0,524.0
13799.0,521.0
13800.0,518.0
13801.0,515.0
13802.0,513.0
13803.0,508.0
13804.0,507.0
13805.0,501.0
13806.000000000002,501.0
13807.0,500.0
13808.0,466.0
13809.000000000002,456.0
13810.0,458.0
13811.0,471.0
13812.000000000002,491.0
13813.0,514.0
13814.0,532.0
13815.0,539.0
13816.0,544.0
13817.0,547.0
13818.0,551.0
13819.0,556.0
13820.0,559.0
13821.0,557.0
13822.000000000002,547.0
13823.0,528.0
13824.0,511.0
13825.000000000002,498.0
13826.0,486.0
13827.0,473.0
13828.0,474.0
13829.0,484.0
13830.0,486.0
13831.0,492.0
13832.0,496.0
13833.0,500.0
13834.0,501.0
13835.0,499.0
13836.0,501.0
13837.0,502.0
13838.000000000002,502.0
13839.0,503.0
13840.0,502.0
13841.000000000002,504.0
13842.0,507.0
13843.0,509.0
13844.0,513.0
13845.0,518.0
13846.0,520.0
13847.0,521.0
13848.0,520.0
13849.0,516.0
13850.0,515.0
13851.0,512.0
13852.0,515.0
13853.0,514.0
13854.000000000002,508.0
13855.0,504.0
13856.0,501.0
13857.000000000002,500.0
13858.0,499.0
13859.0,498.0
13860.0,500.0
13861.0,507.0
13862.0,512.0
13863.0,514.0
13864.0,517.0
13865.0,520.0
13866.0,521.0
13867.0,521.0
13868.0,521.0
13869.0,521.0
13870.000000000002,515.0
13871.0,512.0
13872.0,508.0
13873.000000000002,503.0
13874.0,500.0
13875.0,500.0
13876.0,496.0
13877.0,498.0
13878.0,500.0
13879.0,503.0
13880.0,503.0
13881.0,492.0
13882.0,492.0
13883.0,497.0
13884.0,504.0
13885.0,502.0
13886.000000000002,498.0
13887.0,490.0
13888.0,481.0
13889.000000000002,491.0
13890.0,495.0
13891.0,515.0
13892.0,531.0
13893.0,549.0
13894.0,557.0
13895.0,562.0
13896.0,561.0
13897.0,560.0
13898.0,555.0
13899.0,544.0
13900.0,535.0
13901.0,530.0
13902.000000000002,524.0
13903.0,511.0
13904.0,491.0
13905.000000000002,468.0
13906.0,457.0
13907.0,461.0
13908.0,466.0
13909.0,475.0
13910.0,480.0
13911.0,484.0
13912.0,493.0
13913.0,504.0
13914.0,509.0
13915.000000000002,513.0
13916.0,515.0
13917.0,519.0
13918.000000000002,523.0
13919.0,516.0
13920.0,515.0
13921.000000000002,515.0
13922.0,512.0
13923.0,512.0
13924.0,511.0
13925.0,507.0
13926.0,501.0
13927.0,498.0
13928.0,500.0
13929.0,499.0
13930.0,503.0
13931.000000000002,501.0
13932.0,505.0
13933.0,508.0
13934.000000000002,508.0
13935.0,513.0
13936.0,513.0
13937.000000000002,517.0
13938.0,517.0
13939.0,516.0
13940.0,515.0
13941.0,515.0
13942.0,515.0
13943.0,515.0
13944.0,513.0
13945.0,508.0
13946.0,506.0
13947.000000000002,507.0
13948.0,505.0
13949.0,503.0
13950.000000000002,504.0
13951.0,504.0
13952.0,500.0
13953.0,497.0
13954.0,497.0
13955.0,499.0
13956.0,503.0
13957.0,503.0
13958.0,505.0
13959.0,499.0
13960.0,500.0
13961.0,511.0
13962.0,521.0
13963.000000000002,525.0
13964.0,528.0
13965.0,531.0
13966.000000000002,531.0
13967.0,536.0
13968.0,531.0
13969.0,525.0
13970.0,524.0
13971.0,518.0
13972.0,514.0
13973.0,512.0
13974.0,499.0
13975.0,486.0
13976.0,480.0
13977.0,473.0
13978.0,481.0
13979.000000000002,493.0
13980.0,500.0
13981.0,508.0
13982.000000000002,514.0
13983.0,518.0
13984.0,519.0
13985.0,524.0
13986.0,520.0
13987.0,521.0
13988.0,522.0
13989.0,523.0
13990.0,515.0
13991.0,504.0
13992.0,489.0
13993.0,476.0
13994.0,475.0
13995.000000000002,481.0
13996.0,495.0
13997.0,497.0
13998.000000000002,493.0
13999.0,491.0
