tiempo,valor
0.0,513.0
1.0,515.0
2.0,518.0
3.0,524.0
4.0,519.0
5.0,512.0
6.0,504.0
7.0,498.0
8.0,499.0
9.000000000000002,501.0
10.0,501.0
11.0,498.0
12.0,498.0
13.000000000000002,500.0
14.0,506.0
15.0,511.0
16.0,513.0
17.0,514.0
18.000000000000004,515.0
19.0,515.0
20.0,513.0
21.0,515.0
22.0,509.0
23.0,504.0
24.0,505.0
25.0,503.0
26.000000000000004,506.0
27.0,506.0
28.0,508.0
29.0,508.0
30.0,510.0
31.0,515.0
32.0,518.0
33.0,515.0
34.0,516.0
35.0,513.0
36.00000000000001,512.0
37.0,510.0
38.0,508.0
39.0,504.0
40.0,502.0
41.0,503.0
42.0,502.0
43.0,505.0
44.0,506.0
45.0,508.0
46.0,509.0
47.0,511.0
48.0,516.0
49.0,516.0
50.0,515.0
51.00000000000001,515.0
52.00000000000001,510.0
53.0,510.0
54.0,507.0
55.0,508.0
56.0,504.0
57.0,504.0
58.0,506.0
59.00000000000001,505.0
60.0,506.0
61.0,507.0
62.0,507.0
63.0,510.0
64.0,512.0
65.0,515.0
66.0,514.0
67.0,511.0
68.0,508.0
69.0,510.0
70.0,510.0
71.00000000000001,511.0
72.00000000000001,508.0
73.0,503.0
74.0,503.0
75.0,502.0
76.0,504.0
77.0,506.0
78.0,508.0
79.0,508.0
80.0,512.0
81.0,515.0
82.0,515.0
83.0,515.0
84.0,516.0
85.0,513.0
86.0,513.0
87.00000000000001,511.0
88.0,507.0
89.0,505.0
90.0,501.0
91.0,504.0
92.0,503.0
93.0,504.0
94.0,506.0
95.0,504.0
96.0,504.0
97.0,511.0
98.0,515.0
99.0,518.0
100.0,517.0
101.0,517.0
102.00000000000001,512.0
103.00000000000001,511.0
104.00000000000001,507.0
105.0,507.0
106.0,503.0
107.0,504.0
108.0,507.0
109.0,508.0
110.0,508.0
111.0,509.0
112.0,511.0
113.0,511.0
114.0,513.0
115.0,514.0
116.0,515.0
117.0,512.0
118.00000000000001,514.0
119.00000000000001,513.0
120.0,508.0
121.0,504.0
122.0,500.0
123.0,498.0
124.0,497.0
125.0,502.0
126.0,504.0
127.0,504.0
128.0,507.0
129.0,509.0
130.0,512.0
131.0,512.0
132.0,516.0
133.0,517.0
134.0,515.0
135.0,514.0
136.0,511.0
137.0,509.0
138.0,510.0
139.0,507.0
140.0,502.0
141.0,505.0
142.00000000000003,506.0
143.00000000000003,505.0
144.00000000000003,506.0
145.0,508.0
146.0,509.0
147.0,511.0
148.0,515.0
149.0,515.0
150.0,515.0
151.0,513.0
152.0,513.0
153.0,510.0
154.0,508.0
155.0,510.0
156.0,504.0
157.0,503.0
158.0,504.0
159.0,506.0
160.0,505.0
161.0,507.0
162.0,506.0
163.0,508.0
164.0,514.0
165.0,517.0
166.0,515.0
167.0,512.0
168.0,512.0
169.0,513.0
170.0,508.0
171.0,509.0
172.0,509.0
173.00000000000003,504.0
174.00000000000003,504.0
175.00000000000003,505.0
176.0,507.0
177.0,506.0
178.0,508.0
179.0,509.0
180.0,507.0
181.0,513.0
182.0,515.0
183.0,514.0
184.0,512.0
185.0,510.0
186.0,509.0
187.0,511.0
188.0,508.0
189.0,506.0
190.0,502.0
191.0,503.0
192.0,504.0
193.0,504.0
194.0,507.0
195.0,506.0
196.0,505.0
197.0,510.0
198.0,515.0
199.0,516.0
200.0,515.0
201.0,512.0
202.0,512.0
203.0,511.0
204.00000000000003,509.0
205.00000000000003,511.0
206.00000000000003,508.0
207.00000000000003,502.0
208.00000000000003,501.0
209.0,505.0
210.0,508.0
211.0,510.0
212.0,511.0
213.0,511.0
214.0,516.0
215.0,521.0
216.0,518.0
217.0,518.0
218.0,515.0
219.0,509.0
220.0,503.0
221.0,502.0
222.0,499.0
223.0,498.0
224.0,498.0
225.0,500.0
226.0,503.0
227.0,505.0
228.0,505.0
229.0,509.0
230.0,512.0
231.0,516.0
232.0,518.0
233.0,515.0
234.0,514.0
235.00000000000003,512.0
236.00000000000003,513.0
237.00000000000003,510.0
238.00000000000003,511.0
239.00000000000003,506.0
240.0,504.0
241.0,505.0
242.0,506.0
243.0,505.0
244.0,504.0
245.0,507.0
246.0,508.0
247.0,511.0
248.0,514.0
249.0,516.0
250.0,516.0
251.0,513.0
252.0,513.0
253.0,511.0
254.0,510.0
255.0,510.0
256.0,504.0
257.0,502.0
258.0,501.0
259.0,505.0
260.0,506.0
261.0,506.0
262.0,507.0
263.0,509.0
264.0,511.0
265.0,518.0
266.0,516.0
267.0,514.0
268.0,515.0
269.0,514.0
270.0,509.0
271.0,510.0
272.0,508.0
273.0,502.0
274.0,501.0
275.0,503.0
276.0,503.0
277.0,504.0
278.0,506.0
279.0,505.0
280.0,507.0
281.0,511.0
282.0,513.0
283.00000000000006,512.0
284.00000000000006,514.0
285.00000000000006,514.0
286.00000000000006,514.0
287.00000000000006,511.0
288.00000000000006,512.0
289.0,505.0
290.0,503.0
291.0,505.0
292.0,507.0
293.0,505.0
294.0,507.0
295.0,511.0
296.0,506.0
297.0,512.0
298.0,517.0
299.0,515.0
300.0,513.0
301.0,512.0
302.0,512.0
303.0,512.0
304.0,509.0
305.0,510.0
306.0,504.0
307.0,501.0
308.0,500.0
309.0,502.0
310.0,505.0
311.0,506.0
312.0,508.0
313.0,513.0
314.0,516.0
315.0,515.0
316.0,512.0
317.0,513.0
318.0,513.0
319.0,507.0
320.0,507.0
321.0,512.0
322.0,512.0
323.0,506.0
324.0,505.0
325.0,506.0
326.0,507.0
327.0,505.0
328.0,506.0
329.0,506.0
330.0,505.0
331.0,512.0
332.0,514.0
333.0,512.0
334.0,508.0
335.0,508.0
336.0,511.0
337.0,511.0
338.0,510.0
339.0,506.0
340.0,503.0
341.0,505.0
342.0,506.0
343.0,504.0
344.0,504.0
345.00000000000006,506.0
346.00000000000006,507.0
347.00000000000006,512.0
348.00000000000006,515.0
349.00000000000006,517.0
350.00000000000006,515.0
351.00000000000006,515.0
352.0,513.0
353.0,512.0
354.0,509.0
355.0,508.0
356.0,504.0
357.0,501.0
358.0,501.0
359.0,504.0
360.0,504.0
361.0,507.0
362.0,509.0
363.0,512.0
364.0,514.0
365.0,516.0
366.0,515.0
367.0,512.0
368.0,512.0
369.0,515.0
370.0,511.0
371.0,512.0
372.0,507.0
373.0,502.0
374.0,501.0
375.0,502.0
376.0,502.0
377.0,507.0
378.0,506.0
379.0,508.0
380.0,509.0
381.0,516.0
382.0,515.0
383.0,517.0
384.0,515.0
385.0,513.0
386.0,511.0
387.0,509.0
388.0,508.0
389.0,502.0
390.0,499.0
391.0,503.0
392.0,503.0
393.0,504.0
394.0,505.0
395.0,507.0
396.0,509.0
397.0,512.0
398.0,516.0
399.0,519.0
400.0,514.0
401.0,513.0
402.0,511.0
403.0,510.0
404.0,508.0
405.0,510.0
406.0,505.0
407.0,502.0
408.00000000000006,506.0
409.00000000000006,505.0
410.00000000000006,507.0
411.00000000000006,506.0
412.00000000000006,505.0
413.00000000000006,509.0
414.00000000000006,512.0
415.00000000000006,514.0
416.00000000000006,512.0
417.0,511.0
418.0,511.0
419.0,510.0
420.0,508.0
421.0,509.0
422.0,506.0
423.0,503.0
424.0,502.0
425.0,506.0
426.0,508.0
427.0,505.0
428.0,506.0
429.0,511.0
430.0,515.0
431.0,515.0
432.0,513.0
433.0,513.0
434.0,514.0
435.0,513.0
436.0,511.0
437.0,507.0
438.0,506.0
439.0,504.0
440.0,505.0
441.0,503.0
442.0,505.0
443.0,505.0
444.0,506.0
445.0,506.0
446.0,507.0
447.0,512.0
448.0,517.0
449.0,517.0
450.0,512.0
451.0,512.0
452.0,510.0
453.0,509.0
454.0,509.0
455.0,507.0
456.0,504.0
457.0,504.0
458.0,505.0
459.0,503.0
460.0,503.0
461.0,504.0
462.0,505.0
463.0,509.0
464.0,515.0
465.0,516.0
466.0,517.0
467.0,516.0
468.0,512.0
469.0,511.0
470.00000000000006,510.0
471.00000000000006,513.0
472.00000000000006,510.0
473.00000000000006,506.0
474.00000000000006,508.0
475.00000000000006,505.0
476.00000000000006,506.0
477.00000000000006,502.0
478.00000000000006,506.0
479.00000000000006,507.0
480.0,511.0
481.0,511.0
482.0,510.0
483.0,508.0
484.0,507.0
485.0,506.0
486.0,506.0
487.0,507.0
488.0,509.0
489.0,505.0
490.0,506.0
491.0,509.0
492.0,507.0
493.0,507.0
494.0,510.0
495.0,511.0
496.0,510.0
497.0,513.0
498.0,515.0
499.0,515.0
500.0,515.0
501.0,513.0
502.0,511.0
503.0,509.0
504.0,511.0
505.0,506.0
506.0,503.0
507.0,503.0
508.0,502.0
509.0,504.0
510.0,505.0
511.0,508.0
512.0,510.0
513.0,510.0
514.0,514.0
515.0,519.0
516.0,512.0
517.0,512.0
518.0,512.0
519.0,512.0
520.0,509.0
521.0,509.0
522.0,506.0
523.0,502.0
524.0,503.0
525.0,505.0
526.0,506.0
527.0,508.0
528.0,509.0
529.0,508.0
530.0,509.0
531.0,519.0
532.0,515.0
533.0,512.0
534.0,516.0
535.0,516.0
536.0,510.0
537.0,508.0
538.0,507.0
539.0,503.0
540.0,502.0
541.0,500.0
542.0,503.0
543.0,502.0
544.0,506.0
545.0,508.0
546.0,509.0
547.0,511.0
548.0,516.0
549.0,517.0
550.0,514.0
551.0,512.0
552.0,512.0
553.0,511.0
554.0,509.0
555.0,507.0
556.0,504.0
557.0,503.0
558.0,506.0
559.0,505.0
560.0,505.0
561.0,510.0
562.0,509.0
563.0,511.0
564.0,514.0
565.0000000000001,517.0
566.0000000000001,515.0
567.0000000000001,511.0
568.0000000000001,512.0
569.0000000000001,511.0
570.0000000000001,511.0
571.0000000000001,510.0
572.0000000000001,504.0
573.0000000000001,502.0
574.0000000000001,503.0
575.0000000000001,504.0
576.0000000000001,504.0
577.0,504.0
578.0,506.0
579.0,508.0
580.0,512.0
581.0,516.0
582.0,518.0
583.0,515.0
584.0,512.0
585.0,513.0
586.0,511.0
587.0,509.0
588.0,508.0
589.0,502.0
590.0,504.0
591.0,507.0
592.0,505.0
593.0,507.0
594.0,508.0
595.0,511.0
596.0,512.0
597.0,514.0
598.0,514.0
599.0,514.0
600.0,512.0
601.0,510.0
602.0,508.0
603.0,505.0
604.0,506.0
605.0,503.0
606.0,499.0
607.0,502.0
608.0,505.0
609.0,508.0
610.0,506.0
611.0,510.0
612.0,511.0
613.0,512.0
614.0,516.0
615.0,517.0
616.0,514.0
617.0,516.0
618.0,514.0
619.0,511.0
620.0,510.0
621.0,509.0
622.0,503.0
623.0,502.0
624.0,504.0
625.0,504.0
626.0,504.0
627.0,508.0
628.0,510.0
629.0,509.0
630.0,509.0
631.0,512.0
632.0,513.0
633.0,512.0
634.0,518.0
635.0,515.0
636.0,516.0
637.0,511.0
638.0,508.0
639.0,505.0
640.0,503.0
641.0,505.0
642.0,504.0
643.0,503.0
644.0,506.0
645.0,506.0
646.0,508.0
647.0,511.0
648.0,515.0
649.0,512.0
650.0,512.0
651.0,511.0
652.0,508.0
653.0,508.0
654.0,507.0
655.0,508.0
656.0,504.0
657.0,500.0
658.0,504.0
659.0,504.0
660.0,507.0
661.0,508.0
662.0,511.0
663.0,512.0
664.0,517.0
665.0,517.0
666.0,516.0
667.0,515.0
668.0,513.0
669.0,512.0
670.0,510.0
671.0,512.0
672.0,507.0
673.0,504.0
674.0,504.0
675.0,504.0
676.0,508.0
677.0,508.0
678.0,506.0
679.0,504.0
680.0,508.0
681.0,512.0
682.0,513.0
683.0,511.0
684.0,509.0
685.0,510.0
686.0,509.0
687.0,509.0
688.0,508.0
689.0,503.0
690.0000000000001,503.0
691.0000000000001,506.0
692.0000000000001,507.0
693.0000000000001,507.0
694.0000000000001,509.0
695.0000000000001,510.0
696.0000000000001,511.0
697.0000000000001,513.0
698.0000000000001,515.0
699.0000000000001,517.0
700.0000000000001,512.0
701.0000000000001,513.0
702.0000000000001,512.0
703.0000000000001,509.0
704.0,509.0
705.0,509.0
706.0,502.0
707.0,502.0
708.0,503.0
709.0,506.0
710.0,509.0
711.0,509.0
712.0,511.0
713.0,514.0
714.0,516.0
715.0,514.0
716.0,510.0
717.0,508.0
718.0,508.0
719.0,507.0
720.0,509.0
721.0,506.0
722.0,498.0
723.0,497.0
724.0,499.0
725.0,507.0
726.0,509.0
727.0,508.0
728.0,509.0
729.0,511.0
730.0,519.0
731.0,519.0
732.0,517.0
733.0,516.0
734.0,513.0
735.0,511.0
736.0,511.0
737.0,509.0
738.0,508.0
739.0,503.0
740.0,502.0
741.0,502.0
742.0,502.0
743.0,504.0
744.0,505.0
745.0,506.0
746.0,509.0
747.0,513.0
748.0,516.0
749.0,516.0
750.0,515.0
751.0,512.0
752.0,510.0
753.0,509.0
754.0,510.0
755.0,507.0
756.0,504.0
757.0,505.0
758.0,506.0
759.0,505.0
760.0,507.0
761.0,508.0
762.0,508.0
763.0,512.0
764.0,515.0
765.0,515.0
766.0,516.0
767.0,511.0
768.0,510.0
769.0,509.0
770.0,508.0
771.0,507.0
772.0,503.0
773.0,502.0
774.0,501.0
775.0,506.0
776.0,508.0
777.0,506.0
778.0,506.0
779.0,509.0
780.0,515.0
781.0,515.0
782.0,516.0
783.0,516.0
784.0,513.0
785.0,510.0
786.0,509.0
787.0,508.0
788.0,508.0
789.0,504.0
790.0,501.0
791.0,503.0
792.0,505.0
793.0,507.0
794.0,507.0
795.0,507.0
796.0,508.0
797.0,514.0
798.0,513.0
799.0,513.0
800.0,513.0
801.0,512.0
802.0,509.0
803.0,510.0
804.0,511.0
805.0,508.0
806.0,500.0
807.0,503.0
808.0,503.0
809.0,506.0
810.0,507.0
811.0,506.0
812.0,507.0
813.0,510.0
814.0,515.0
815.0000000000001,517.0
816.0000000000001,515.0
817.0000000000001,513.0
818.0000000000001,511.0
819.0000000000001,511.0
820.0000000000001,510.0
821.0000000000001,511.0
822.0000000000001,505.0
823.0000000000001,504.0
824.0000000000001,502.0
825.0000000000001,505.0
826.0000000000001,507.0
827.0000000000001,508.0
828.0000000000001,509.0
829.0000000000001,510.0
830.0000000000001,513.0
831.0000000000001,514.0
832.0000000000001,515.0
833.0,512.0
834.0,511.0
835.0,511.0
836.0,512.0
837.0,509.0
838.0,510.0
839.0,506.0
840.0,502.0
841.0,504.0
842.0,505.0
843.0,504.0
844.0,505.0
845.0,507.0
846.0,513.0
847.0,519.0
848.0,520.0
849.0,515.0
850.0,510.0
851.0,507.0
852.0,510.0
853.0,509.0
854.0,507.0
855.0,503.0
856.0,497.0
857.0,498.0
858.0,502.0
859.0,502.0
860.0,505.0
861.0,508.0
862.0,511.0
863.0,515.0
864.0,519.0
865.0,516.0
866.0,518.0
867.0,513.0
868.0,514.0
869.0,512.0
870.0,509.0
871.0,509.0
872.0,505.0
873.0,502.0
874.0,504.0
875.0,504.0
876.0,505.0
877.0,508.0
878.0,507.0
879.0,509.0
880.0,515.0
881.0,520.0
882.0,515.0
883.0,514.0
884.0,514.0
885.0,509.0
886.0,508.0
887.0,507.0
888.0,506.0
889.0,503.0
890.0,500.0
891.0,501.0
892.0,500.0
893.0,506.0
894.0,510.0
895.0,508.0
896.0,511.0
897.0,513.0
898.0,516.0
899.0,514.0
900.0,511.0
901.0,513.0
902.0,512.0
903.0,509.0
904.0,510.0
905.0,510.0
906.0,507.0
907.0,505.0
908.0,507.0
909.0,510.0
910.0,510.0
911.0,508.0
912.0,508.0
913.0,511.0
914.0,511.0
915.0,510.0
916.0,509.0
917.0,508.0
918.0,509.0
919.0,509.0
920.0,509.0
921.0,506.0
922.0,504.0
923.0,503.0
924.0,504.0
925.0,505.0
926.0,506.0
927.0,506.0
928.0,508.0
929.0,509.0
930.0,514.0
931.0,517.0
932.0,515.0
933.0,514.0
934.0,514.0
935.0,512.0
936.0,511.0
937.0,509.0
938.0,509.0
939.0,504.0
940.0000000000001,503.0
941.0000000000001,504.0
942.0000000000001,505.0
943.0000000000001,506.0
944.0000000000001,509.0
945.0000000000001,508.0
946.0000000000001,510.0
947.0000000000001,512.0
948.0000000000001,513.0
949.0000000000001,514.0
950.0000000000001,511.0
951.0000000000001,512.0
952.0000000000001,508.0
953.0000000000001,509.0
954.0000000000001,508.0
955.0000000000001,504.0
956.0000000000001,506.0
957.0000000000001,507.0
958.0000000000001,508.0
959.0000000000001,506.0
960.0,505.0
961.0,508.0
962.0,507.0
963.0,513.0
964.0,519.0
965.0,516.0
966.0,511.0
967.0,509.0
968.0,510.0
969.0,509.0
970.0,507.0
971.0,507.0
972.0,504.0
973.0,503.0
974.0,500.0
975.0,504.0
976.0,507.0
977.0,506.0
978.0,507.0
979.0,511.0
980.0,515.0
981.0,518.0
982.0,518.0
983.0,515.0
984.0,512.0
985.0,512.0
986.0,513.0
987.0,509.0
988.0,508.0
989.0,504.0
990.0,502.0
991.0,503.0
992.0,501.0
993.0,504.0
994.0,505.0
995.0,505.0
996.0,507.0
997.0,512.0
998.0,512.0
999.0,514.0
1000.0,513.0
1001.0000000000001,514.0
1002.0,514.0
1003.0000000000001,511.0
1004.0,511.0
1005.0000000000001,507.0
1006.0,503.0
1007.0000000000001,504.0
1008.0,506.0
1009.0000000000001,506.0
1010.0,509.0
1011.0000000000001,507.0
1012.0,507.0
1013.0000000000001,514.0
1014.0,516.0
1015.0000000000001,515.0
1016.0,513.0
1017.0000000000001,513.0
1018.0,512.0
1019.0000000000001,509.0
1020.0,510.0
1021.0000000000001,508.0
1022.0,505.0
1023.0000000000001,504.0
1024.0,504.0
1025.0,506.0
1026.0,506.0
1027.0,508.0
1028.0,505.0
1029.0,507.0
1030.0,511.0
1031.0,514.0
1032.0,513.0
1033.0,512.0
1034.0,511.0
1035.0,510.0
1036.0,508.0
1037.0,508.0
1038.0,510.0
1039.0,503.0
1040.0,504.0
1041.0,505.0
1042.0,505.0
1043.0,508.0
1044.0,510.0
1045.0,508.0
1046.0,512.0
1047.0,516.0
1048.0,517.0
1049.0,516.0
1050.0,515.0
1051.0,512.0
1052.0,511.0
1053.0,508.0
1054.0,513.0
1055.0,506.0
1056.0,501.0
1057.0,502.0
1058.0,504.0
1059.0,503.0
1060.0,504.0
1061.0,505.0
1062.0,509.0
1063.0,512.0
1064.0,514.0
1065.0,518.0
1066.0,514.0
1067.0,511.0
1068.0,513.0
1069.0,513.0
1070.0,510.0
1071.0,506.0
1072.0,502.0
1073.0,499.0
1074.0,499.0
1075.0,504.0
1076.0,506.0
1077.0,508.0
1078.0,509.0
1079.0,512.0
1080.0,514.0
1081.0,515.0
1082.0,515.0
1083.0,512.0
1084.0,511.0
1085.0,511.0
1086.0,510.0
1087.0,511.0
1088.0,510.0
1089.0,508.0
1090.0,504.0
1091.0,502.0
1092.0,504.0
1093.0,505.0
1094.0,504.0
1095.0,505.0
1096.0,509.0
1097.0,513.0
1098.0,512.0
1099.0,512.0
1100.0,512.0
1101.0,511.0
1102.0,511.0
1103.0,513.0
1104.0,510.0
1105.0,508.0
1106.0,503.0
1107.0,503.0
1108.0,505.0
1109.0,506.0
1110.0,506.0
1111.0,508.0
1112.0,508.0
1113.0,511.0
1114.0,512.0
1115.0,517.0
1116.0,514.0
1117.0,514.0
1118.0,511.0
1119.0,510.0
1120.0,509.0
1121.0,508.0
1122.0,505.0
1123.0,502.0
1124.0,504.0
1125.0,504.0
1126.0,504.0
1127.0,508.0
1128.0,511.0
1129.0,511.0
1130.0000000000002,515.0
1131.0,516.0
1132.0000000000002,514.0
1133.0,514.0
1134.0000000000002,510.0
1135.0,508.0
1136.0000000000002,508.0
1137.0,508.0
1138.0000000000002,508.0
1139.0,505.0
1140.0000000000002,503.0
1141.0,504.0
1142.0000000000002,505.0
1143.0,508.0
1144.0000000000002,510.0
1145.0,508.0
1146.0000000000002,510.0
1147.0,513.0
1148.0000000000002,514.0
1149.0,511.0
1150.0000000000002,511.0
1151.0,510.0
1152.0000000000002,509.0
1153.0,509.0
1154.0,507.0
1155.0,502.0
1156.0,499.0
1157.0,501.0
1158.0,508.0
1159.0,511.0
1160.0,511.0
1161.0,508.0
1162.0,510.0
1163.0,512.0
1164.0,515.0
1165.0,516.0
1166.0,514.0
1167.0,512.0
1168.0,511.0
1169.0,508.0
1170.0,508.0
1171.0,510.0
1172.0,504.0
1173.0,504.0
1174.0,504.0
1175.0,507.0
1176.0,505.0
1177.0,507.0
1178.0,510.0
1179.0,513.0
1180.0,512.0
1181.0,513.0
1182.0,513.0
1183.0,509.0
1184.0,510.0
1185.0,509.0
1186.0,509.0
1187.0,507.0
1188.0,507.0
1189.0,503.0
1190.0,503.0
1191.0,505.0
1192.0,505.0
1193.0,508.0
1194.0,507.0
1195.0,509.0
1196.0,512.0
1197.0,516.0
1198.0,517.0
1199.0,515.0
1200.0,514.0
1201.0,513.0
1202.0,515.0
1203.0,513.0
1204.0,510.0
1205.0,506.0
1206.0,502.0
1207.0,501.0
1208.0,504.0
1209.0,504.0
1210.0,505.0
1211.0,503.0
1212.0,505.0
1213.0,511.0
1214.0,513.0
1215.0,512.0
1216.0,511.0
1217.0,512.0
1218.0,513.0
1219.0,508.0
1220.0,508.0
1221.0,506.0
1222.0,505.0
1223.0,506.0
1224.0,507.0
1225.0,507.0
1226.0,508.0
1227.0,507.0
1228.0,509.0
1229.0,510.0
1230.0,515.0
1231.0,518.0
1232.0,512.0
1233.0,511.0
1234.0,511.0
1235.0,510.0
1236.0,510.0
1237.0,509.0
1238.0,504.0
1239.0,502.0
1240.0,500.0
1241.0,504.0
1242.0,501.0
1243.0,504.0
1244.0,509.0
1245.0,510.0
1246.0,512.0
1247.0,513.0
1248.0,517.0
1249.0,513.0
1250.0,513.0
1251.0,513.0
1252.0,512.0
1253.0,510.0
1254.0,510.0
1255.0000000000002,503.0
1256.0,503.0
1257.0000000000002,504.0
1258.0,504.0
1259.0000000000002,505.0
1260.0,506.0
1261.0000000000002,509.0
1262.0,509.0
1263.0000000000002,515.0
1264.0,515.0
1265.0000000000002,512.0
1266.0,510.0
1267.0000000000002,512.0
1268.0,510.0
1269.0000000000002,508.0
1270.0,508.0
1271.0000000000002,508.0
1272.0,500.0
1273.0000000000002,503.0
1274.0,505.0
1275.0000000000002,508.0
1276.0,508.0
1277.0000000000002,509.0
1278.0,510.0
1279.0000000000002,508.0
1280.0,515.0
1281.0,512.0
1282.0,512.0
1283.0,511.0
1284.0,513.0
1285.0,510.0
1286.0,510.0
1287.0,509.0
1288.0,507.0
1289.0,504.0
1290.0,503.0
1291.0,504.0
1292.0,509.0
1293.0,509.0
1294.0,509.0
1295.0,510.0
1296.0,514.0
1297.0,518.0
1298.0,518.0
1299.0,515.0
1300.0,511.0
1301.0,511.0
1302.0,508.0
1303.0,506.0
1304.0,505.0
1305.0,502.0
1306.0,501.0
1307.0,502.0
1308.0,505.0
1309.0,507.0
1310.0,509.0
1311.0,512.0
1312.0,513.0
1313.0,513.0
1314.0,515.0
1315.0,513.0
1316.0,512.0
1317.0,510.0
1318.0,511.0
1319.0,507.0
1320.0,505.0
1321.0,509.0
1322.0,502.0
1323.0,499.0
1324.0,502.0
1325.0,505.0
1326.0,506.0
1327.0,507.0
1328.0,509.0
1329.0,513.0
1330.0,514.0
1331.0,518.0
1332.0,515.0
1333.0,515.0
1334.0,512.0
1335.0,511.0
1336.0,511.0
1337.0,509.0
1338.0,506.0
1339.0,503.0
1340.0,504.0
1341.0,504.0
1342.0,505.0
1343.0,506.0
1344.0,508.0
1345.0,509.0
1346.0,513.0
1347.0,514.0
1348.0,517.0
1349.0,513.0
1350.0,512.0
1351.0,512.0
1352.0,508.0
1353.0,506.0
1354.0,507.0
1355.0,506.0
1356.0,502.0
1357.0,504.0
1358.0,511.0
1359.0,506.0
1360.0,507.0
1361.0,507.0
1362.0,507.0
1363.0,514.0
1364.0,515.0
1365.0,512.0
1366.0,514.0
1367.0,514.0
1368.0,512.0
1369.0,511.0
1370.0,509.0
1371.0,509.0
1372.0,502.0
1373.0,501.0
1374.0,504.0
1375.0,504.0
1376.0,506.0
1377.0,506.0
1378.0,507.0
1379.0,507.0
1380.0000000000002,511.0
1381.0,512.0
1382.0000000000002,513.0
1383.0,512.0
1384.0000000000002,510.0
1385.0,512.0
1386.0000000000002,513.0
1387.0,513.0
1388.0000000000002,508.0
1389.0,500.0
1390.0000000000002,504.0
1391.0,505.0
1392.0000000000002,510.0
1393.0,508.0
1394.0000000000002,511.0
1395.0,510.0
1396.0000000000002,513.0
1397.0,515.0
1398.0000000000002,511.0
1399.0,511.0
1400.0000000000002,511.0
1401.0,510.0
1402.0000000000002,509.0
1403.0,509.0
1404.0000000000002,509.0
1405.0,506.0
1406.0000000000002,505.0
1407.0,501.0
1408.0,505.0
1409.0,507.0
1410.0,508.0
1411.0,508.0
1412.0,507.0
1413.0,512.0
1414.0,515.0
1415.0,515.0
1416.0,512.0
1417.0,506.0
1418.0,506.0
1419.0,505.0
1420.0,507.0
1421.0,507.0
1422.0,505.0
1423.0,504.0
1424.0,502.0
1425.0,504.0
1426.0,506.0
1427.0,508.0
1428.0,511.0
1429.0,514.0
1430.0,515.0
1431.0,518.0
1432.0,515.0
1433.0,512.0
1434.0,512.0
1435.0,510.0
1436.0,510.0
1437.0,507.0
1438.0,507.0
1439.0,508.0
1440.0,507.0
1441.0,508.0
1442.0,508.0
1443.0,506.0
1444.0,509.0
1445.0,509.0
1446.0,509.0
1447.0,510.0
1448.0,511.0
1449.0,513.0
1450.0,512.0
1451.0,509.0
1452.0,506.0
1453.0,506.0
1454.0,503.0
1455.0,504.0
1456.0,503.0
1457.0,503.0
1458.0,504.0
1459.0,505.0
1460.0,508.0
1461.0,508.0
1462.0,510.0
1463.0,514.0
1464.0,517.0
1465.0,517.0
1466.0,515.0
1467.0,515.0
1468.0,512.0
1469.0,510.0
1470.0,510.0
1471.0,505.0
1472.0,502.0
1473.0,501.0
1474.0,503.0
1475.0,506.0
1476.0,510.0
1477.0,512.0
1478.0,512.0
1479.0,513.0
1480.0,515.0
1481.0,516.0
1482.0,513.0
1483.0,512.0
1484.0,508.0
1485.0,508.0
1486.0,510.0
1487.0,508.0
1488.0,504.0
1489.0,502.0
1490.0,504.0
1491.0,505.0
1492.0,505.0
1493.0,506.0
1494.0,508.0
1495.0,509.0
1496.0,514.0
1497.0,518.0
1498.0,516.0
1499.0,514.0
1500.0,512.0
1501.0,510.0
1502.0,507.0
1503.0,507.0
1504.0,504.0
1505.0000000000002,499.0
1506.0,498.0
1507.0000000000002,502.0
1508.0,505.0
1509.0000000000002,508.0
1510.0,509.0
1511.0000000000002,509.0
1512.0,512.0
1513.0000000000002,515.0
1514.0,517.0
1515.0000000000002,517.0
1516.0,512.0
1517.0000000000002,510.0
1518.0,511.0
1519.0000000000002,509.0
1520.0,508.0
1521.0000000000002,506.0
1522.0,503.0
1523.0000000000002,504.0
1524.0,506.0
1525.0000000000002,507.0
1526.0,509.0
1527.0000000000002,509.0
1528.0,510.0
1529.0000000000002,512.0
1530.0,515.0
1531.0000000000002,515.0
1532.0,514.0
1533.0000000000002,511.0
1534.0,508.0
1535.0000000000002,508.0
1536.0,507.0
1537.0,505.0
1538.0,503.0
1539.0,502.0
1540.0,504.0
1541.0,504.0
1542.0,506.0
1543.0,508.0
1544.0,510.0
1545.0,514.0
1546.0,518.0
1547.0,518.0
1548.0,515.0
1549.0,513.0
1550.0,512.0
1551.0,511.0
1552.0,510.0
1553.0,509.0
1554.0,504.0
1555.0,502.0
1556.0,498.0
1557.0,504.0
1558.0,508.0
1559.0,511.0
1560.0,508.0
1561.0,510.0
1562.0,512.0
1563.0,513.0
1564.0,515.0
1565.0,511.0
1566.0,509.0
1567.0,510.0
1568.0,509.0
1569.0,508.0
1570.0,504.0
1571.0,500.0
1572.0,501.0
1573.0,503.0
1574.0,507.0
1575.0,508.0
1576.0,508.0
1577.0,510.0
1578.0,512.0
1579.0,513.0
1580.0,515.0
1581.0,516.0
1582.0,513.0
1583.0,511.0
1584.0,513.0
1585.0,513.0
1586.0,510.0
1587.0,508.0
1588.0,503.0
1589.0,503.0
1590.0,504.0
1591.0,504.0
1592.0,507.0
1593.0,508.0
1594.0,508.0
1595.0,509.0
1596.0,513.0
1597.0,516.0
1598.0,518.0
1599.0,516.0
1600.0,512.0
1601.0,511.0
1602.0,509.0
1603.0,507.0
1604.0,507.0
1605.0,503.0
1606.0,501.0
1607.0,500.0
1608.0,500.0
1609.0,505.0
1610.0,508.0
1611.0,510.0
1612.0,513.0
1613.0,515.0
1614.0,519.0
1615.0,517.0
1616.0,513.0
1617.0,512.0
1618.0,508.0
1619.0,509.0
1620.0,506.0
1621.0,503.0
1622.0,502.0
1623.0,504.0
1624.0,506.0
1625.0,506.0
1626.0,507.0
1627.0,509.0
1628.0,511.0
1629.0,512.0
1630.0000000000002,513.0
1631.0,514.0
1632.0000000000002,513.0
1633.0,509.0
1634.0000000000002,507.0
1635.0,505.0
1636.0000000000002,505.0
1637.0,506.0
1638.0000000000002,504.0
1639.0,505.0
1640.0000000000002,504.0
1641.0,505.0
1642.0000000000002,507.0
1643.0,510.0
1644.0000000000002,510.0
1645.0,511.0
1646.0000000000002,517.0
1647.0,516.0
1648.0000000000002,518.0
1649.0,515.0
1650.0000000000002,512.0
1651.0,511.0
1652.0000000000002,509.0
1653.0,508.0
1654.0000000000002,507.0
1655.0,500.0
1656.0000000000002,502.0
1657.0,502.0
1658.0000000000002,506.0
1659.0,507.0
1660.0000000000002,505.0
1661.0,509.0
1662.0000000000002,511.0
1663.0,512.0
1664.0000000000002,514.0
1665.0,515.0
1666.0,514.0
1667.0,515.0
1668.0,512.0
1669.0,511.0
1670.0,508.0
1671.0,504.0
1672.0,501.0
1673.0,502.0
1674.0,503.0
1675.0,503.0
1676.0,503.0
1677.0,506.0
1678.0,508.0
1679.0,511.0
1680.0,516.0
1681.0,517.0
1682.0,514.0
1683.0,513.0
1684.0,514.0
1685.0,512.0
1686.0,512.0
1687.0,507.0
1688.0,505.0
1689.0,502.0
1690.0,503.0
1691.0,505.0
1692.0,503.0
1693.0,506.0
1694.0,509.0
1695.0,510.0
1696.0,513.0
1697.0,515.0
1698.0,515.0
1699.0,515.0
1700.0,511.0
1701.0,512.0
1702.0,510.0
1703.0,511.0
1704.0,509.0
1705.0,502.0
1706.0,503.0
1707.0,503.0
1708.0,504.0
1709.0,505.0
1710.0,508.0
1711.0,509.0
1712.0,512.0
1713.0,517.0
1714.0,517.0
1715.0,511.0
1716.0,510.0
1717.0,509.0
1718.0,510.0
1719.0,508.0
1720.0,507.0
1721.0,506.0
1722.0,503.0
1723.0,502.0
1724.0,504.0
1725.0,507.0
1726.0,507.0
1727.0,510.0
1728.0,512.0
1729.0,517.0
1730.0,516.0
1731.0,516.0
1732.0,513.0
1733.0,512.0
1734.0,511.0
1735.0,509.0
1736.0,506.0
1737.0,505.0
1738.0,500.0
1739.0,501.0
1740.0,503.0
1741.0,503.0
1742.0,505.0
1743.0,509.0
1744.0,511.0
1745.0,514.0
1746.0,520.0
1747.0,521.0
1748.0,520.0
1749.0,513.0
1750.0,512.0
1751.0,510.0
1752.0,507.0
1753.0,506.0
1754.0,500.0
1755.0000000000002,499.0
1756.0,499.0
1757.0000000000002,502.0
1758.0,504.0
1759.0000000000002,505.0
1760.0,506.0
1761.0000000000002,508.0
1762.0,513.0
1763.0000000000002,516.0
1764.0,518.0
1765.0000000000002,516.0
1766.0,515.0
1767.0000000000002,516.0
1768.0,512.0
1769.0000000000002,511.0
1770.0,509.0
1771.0000000000002,505.0
1772.0,499.0
1773.0000000000002,501.0
1774.0,501.0
1775.0000000000002,501.0
1776.0,505.0
1777.0000000000002,506.0
1778.0,510.0
1779.0000000000002,512.0
1780.0,518.0
1781.0000000000002,517.0
1782.0,516.0
1783.0000000000002,513.0
1784.0,512.0
1785.0000000000002,511.0
1786.0,510.0
1787.0000000000002,507.0
1788.0,505.0
1789.0000000000002,501.0
1790.0,506.0
1791.0000000000002,510.0
1792.0,507.0
1793.0,507.0
1794.0,508.0
1795.0,512.0
1796.0,511.0
1797.0,514.0
1798.0,516.0
1799.0,515.0
1800.0,513.0
1801.0,511.0
1802.0,510.0
1803.0,507.0
1804.0,503.0
1805.0,499.0
1806.0,500.0
1807.0,503.0
1808.0,504.0
1809.0,505.0
1810.0,507.0
1811.0,511.0
1812.0,512.0
1813.0,516.0
1814.0,515.0
1815.0,513.0
1816.0,515.0
1817.0,512.0
1818.0,510.0
1819.0,512.0
1820.0,510.0
1821.0,506.0
1822.0,499.0
1823.0,498.0
1824.0,499.0
1825.0,503.0
1826.0,505.0
1827.0,506.0
1828.0,509.0
1829.0,513.0
1830.0,516.0
1831.0,517.0
1832.0,513.0
1833.0,512.0
1834.0,512.0
1835.0,512.0
1836.0,509.0
1837.0,508.0
1838.0,501.0
1839.0,502.0
1840.0,505.0
1841.0,507.0
1842.0,507.0
1843.0,509.0
1844.0,511.0
1845.0,512.0
1846.0,519.0
1847.0,519.0
1848.0,516.0
1849.0,515.0
1850.0,512.0
1851.0,510.0
1852.0,509.0
1853.0,506.0
1854.0,501.0
1855.0,496.0
1856.0,496.0
1857.0,498.0
1858.0,502.0
1859.0,505.0
1860.0,505.0
1861.0,508.0
1862.0,512.0
1863.0,513.0
1864.0,516.0
1865.0,516.0
1866.0,515.0
1867.0,516.0
1868.0,515.0
1869.0,514.0
1870.0,512.0
1871.0,507.0
1872.0,503.0
1873.0,503.0
1874.0,505.0
1875.0,505.0
1876.0,504.0
1877.0,503.0
1878.0,504.0
1879.0,507.0
1880.0000000000002,513.0
1881.0,513.0
1882.0000000000002,515.0
1883.0,517.0
1884.0000000000002,516.0
1885.0,513.0
1886.0000000000002,509.0
1887.0,504.0
1888.0000000000002,505.0
1889.0,503.0
1890.0000000000002,502.0
1891.0,501.0
1892.0000000000002,506.0
1893.0,508.0
1894.0000000000002,509.0
1895.0,517.0
1896.0000000000002,519.0
1897.0,521.0
1898.0000000000002,518.0
1899.0,513.0
1900.0000000000002,512.0
1901.0,510.0
1902.0000000000002,510.0
1903.0,506.0
1904.0000000000002,499.0
1905.0,496.0
1906.0000000000002,495.0
1907.0,499.0
1908.0000000000002,501.0
1909.0,504.0
1910.0000000000002,506.0
1911.0,510.0
1912.0000000000002,513.0
1913.0,519.0
1914.0000000000002,518.0
1915.0,516.0
1916.0000000000002,514.0
1917.0,514.0
1918.0000000000002,511.0
1919.0,507.0
1920.0,507.0
1921.0,506.0
1922.0,504.0
1923.0,504.0
1924.0,504.0
1925.0,504.0
1926.0,508.0
1927.0,511.0
1928.0,511.0
1929.0,515.0
1930.0,516.0
1931.0,517.0
1932.0,513.0
1933.0,512.0
1934.0,510.0
1935.0,507.0
1936.0,507.0
1937.0,504.0
1938.0,500.0
1939.0,500.0
1940.0,505.0
1941.0,506.0
1942.0,508.0
1943.0,509.0
1944.0,509.0
1945.0,511.0
1946.0,515.0
1947.0,516.0
1948.0,513.0
1949.0,515.0
1950.0,513.0
1951.0,510.0
1952.0,511.0
1953.0,510.0
1954.0,507.0
1955.0,504.0
1956.0,501.0
1957.0,503.0
1958.0,504.0
1959.0,505.0
1960.0,507.0
1961.0,508.0
1962.0,511.0
1963.0,513.0
1964.0,513.0
1965.0,512.0
1966.0,513.0
1967.0,513.0
1968.0,512.0
1969.0,510.0
1970.0,510.0
1971.0,504.0
1972.0,503.0
1973.0,503.0
1974.0,504.0
1975.0,505.0
1976.0,503.0
1977.0,503.0
1978.0,506.0
1979.0,512.0
1980.0,515.0
1981.0,515.0
1982.0,514.0
1983.0,512.0
1984.0,513.0
1985.0,510.0
1986.0,510.0
1987.0,505.0
1988.0,503.0
1989.0,507.0
1990.0,506.0
1991.0,507.0
1992.0,507.0
1993.0,508.0
1994.0,508.0
1995.0,512.0
1996.0,514.0
1997.0,516.0
1998.0,515.0
1999.0,512.0
