timestamp,valores
0.0,19.354838709677416
1.0000366313784388,25.806451612903224
2.0000732627568776,12.903225806451612
3.000109894135316,9.677419354838708
4.000146525513755,-12.903225806451612
5.000183156892194,-32.25806451612903
6.000219788270632,-48.387096774193544
7.000256419649071,-74.19354838709677
8.00029305102751,-83.87096774193549
9.00032968240595,-80.64516129032258
10.000366313784388,-77.41935483870967
11.000402945162827,-80.64516129032258
12.000439576541265,-77.41935483870967
13.000476207919704,-54.83870967741935
14.000512839298143,-38.70967741935483
15.000549470676582,-16.129032258064516
16.00058610205502,-12.903225806451612
17.00062273343346,-25.806451612903224
18.0006593648119,-25.806451612903224
19.000695996190338,-12.903225806451612
20.000732627568777,-9.677419354838708
21.000769258947216,-9.677419354838708
22.000805890325655,-6.451612903225806
23.000842521704094,6.451612903225806
24.00087915308253,-16.129032258064516
25.000915784460968,-29.03225806451613
26.000952415839407,-16.129032258064516
27.000989047217846,6.451612903225806
28.001025678596285,16.129032258064516
29.001062309974724,12.903225806451612
30.001098941353163,12.903225806451612
31.001135572731602,16.129032258064516
32.00117220411004,6.451612903225806
33.00120883548848,9.677419354838708
34.00124546686692,-6.451612903225806
35.001282098245355,-16.129032258064516
36.0013187296238,-22.58064516129032
37.00135536100223,-22.58064516129032
38.001391992380675,-29.03225806451613
39.00142862375911,-35.483870967741936
40.00146525513755,-35.483870967741936
41.00150188651599,-19.354838709677416
42.00153851789443,-38.70967741935483
43.00157514927287,-58.06451612903226
44.00161178065131,-48.387096774193544
45.001648412029745,-35.483870967741936
46.00168504340819,-19.354838709677416
47.00172167478662,0.0
48.00175830616506,9.677419354838708
49.0017949375435,12.903225806451612
50.001831568921936,29.03225806451613
51.00186820030038,48.387096774193544
52.001904831678814,54.83870967741935
53.00194146305726,54.83870967741935
54.00197809443569,41.935483870967744
55.002014725814135,25.806451612903224
56.00205135719257,22.58064516129032
57.00208798857101,12.903225806451612
58.00212461994945,3.225806451612903
59.00216125132789,-9.677419354838708
60.00219788270633,0.0
61.00223451408477,-6.451612903225806
62.002271145463205,-25.806451612903224
63.00230777684165,-32.25806451612903
64.00234440822008,-22.58064516129032
65.00238103959852,3.225806451612903
66.00241767097695,25.806451612903224
67.0024543023554,35.483870967741936
68.00249093373384,41.935483870967744
69.00252756511227,45.16129032258064
70.00256419649071,51.61290322580645
71.00260082786916,67.74193548387096
72.0026374592476,61.29032258064516
73.00267409062603,41.935483870967744
74.00271072200447,32.25806451612903
75.00274735338292,22.58064516129032
76.00278398476135,16.129032258064516
77.00282061613979,16.129032258064516
78.00285724751822,16.129032258064516
79.00289387889667,25.806451612903224
80.0029305102751,32.25806451612903
81.00296714165354,48.387096774193544
82.00300377303198,51.61290322580645
83.00304040441041,45.16129032258064
84.00307703578886,45.16129032258064
85.0031136671673,58.06451612903226
86.00315029854573,51.61290322580645
87.00318692992417,41.935483870967744
88.00322356130262,38.70967741935483
89.00326019268105,25.806451612903224
90.00329682405949,-12.903225806451612
91.00333345543793,-54.83870967741935
92.00337008681637,-64.51612903225806
93.00340671819481,-54.83870967741935
94.00344334957325,-35.483870967741936
95.00347998095168,-6.451612903225806
96.00351661233012,29.03225806451613
97.00355324370857,58.06451612903226
98.003589875087,64.51612903225806
99.00362650646544,54.83870967741935
100.00366313784387,35.483870967741936
101.00369976922232,54.83870967741935
102.00373640060076,74.19354838709677
103.0037730319792,87.09677419354838
104.00380966335763,70.96774193548387
105.00384629473608,38.70967741935483
106.00388292611451,25.806451612903224
107.00391955749295,19.354838709677416
108.00395618887138,0.0
109.00399282024983,-9.677419354838708
110.00402945162827,-3.225806451612903
111.0040660830067,-6.451612903225806
112.00410271438514,-19.354838709677416
113.00413934576358,-29.03225806451613
114.00417597714203,-32.25806451612903
115.00421260852046,-25.806451612903224
116.0042492398989,-9.677419354838708
117.00428587127733,6.451612903225806
118.00432250265578,25.806451612903224
119.00435913403422,38.70967741935483
120.00439576541265,41.935483870967744
121.00443239679109,25.806451612903224
122.00446902816954,3.225806451612903
123.00450565954797,0.0
124.00454229092641,3.225806451612903
125.00457892230484,16.129032258064516
126.0046155536833,16.129032258064516
127.00465218506173,9.677419354838708
128.00468881644017,3.225806451612903
129.0047254478186,6.451612903225806
130.00476207919704,16.129032258064516
131.00479871057547,22.58064516129032
132.0048353419539,25.806451612903224
133.00487197333237,25.806451612903224
134.0049086047108,6.451612903225806
135.00494523608924,-16.129032258064516
136.00498186746768,-35.483870967741936
137.0050184988461,-41.935483870967744
138.00505513022455,-74.19354838709677
139.00509176160298,-90.32258064516128
140.00512839298142,-70.96774193548387
141.00516502435988,-54.83870967741935
142.00520165573832,-41.935483870967744
143.00523828711675,-51.61290322580645
144.0052749184952,-58.06451612903226
145.00531154987362,-80.64516129032258
146.00534818125206,-106.4516129032258
147.0053848126305,-122.58064516129032
148.00542144400893,-129.03225806451613
149.00545807538737,-99.99999999999999
150.00549470676583,-41.935483870967744
151.00553133814427,0.0
152.0055679695227,48.387096774193544
153.00560460090114,61.29032258064516
154.00564123227957,41.935483870967744
155.005677863658,29.03225806451613
156.00571449503644,12.903225806451612
157.00575112641488,12.903225806451612
158.00578775779334,3.225806451612903
159.00582438917178,-29.03225806451613
160.0058610205502,-54.83870967741935
161.00589765192865,-64.51612903225806
162.00593428330708,-61.29032258064516
163.00597091468552,-48.387096774193544
164.00600754606396,-48.387096774193544
165.0060441774424,-51.61290322580645
166.00608080882083,-41.935483870967744
167.0061174401993,-38.70967741935483
168.00615407157773,-38.70967741935483
169.00619070295616,-64.51612903225806
170.0062273343346,-77.41935483870967
171.00626396571303,-90.32258064516128
172.00630059709147,-87.09677419354838
173.0063372284699,-64.51612903225806
174.00637385984834,-51.61290322580645
175.0064104912268,-38.70967741935483
176.00644712260524,-35.483870967741936
177.00648375398367,-35.483870967741936
178.0065203853621,-32.25806451612903
179.00655701674054,-29.03225806451613
180.00659364811898,-32.25806451612903
181.00663027949741,-32.25806451612903
182.00666691087585,-35.483870967741936
183.0067035422543,-32.25806451612903
184.00674017363275,-41.935483870967744
185.00677680501119,-48.387096774193544
186.00681343638962,-54.83870967741935
187.00685006776806,-61.29032258064516
188.0068866991465,-58.06451612903226
189.00692333052493,-64.51612903225806
190.00695996190336,-77.41935483870967
191.0069965932818,-99.99999999999999
192.00703322466023,-119.35483870967742
193.0070698560387,-141.93548387096774
194.00710648741713,-151.61290322580646
195.00714311879557,-154.83870967741933
196.007179750174,-141.93548387096774
197.00721638155244,-122.58064516129032
198.00725301293087,-87.09677419354838
199.0072896443093,-67.74193548387096
200.00732627568775,-67.74193548387096
201.0073629070662,-67.74193548387096
202.00739953844464,-80.64516129032258
203.00743616982308,-87.09677419354838
204.00747280120152,-99.99999999999999
205.00750943257995,-103.2258064516129
206.0075460639584,-106.4516129032258
207.00758269533682,-106.4516129032258
208.00761932671526,-106.4516129032258
209.0076559580937,-112.9032258064516
210.00769258947216,-112.9032258064516
211.0077292208506,-112.9032258064516
212.00776585222903,-112.9032258064516
213.00780248360746,-103.2258064516129
214.0078391149859,-99.99999999999999
215.00787574636433,-77.41935483870967
216.00791237774277,-70.96774193548387
217.0079490091212,-77.41935483870967
218.00798564049967,-38.70967741935483
219.0080222718781,-9.677419354838708
220.00805890325654,0.0
221.00809553463498,0.0
222.0081321660134,-9.677419354838708
223.00816879739185,-25.806451612903224
224.00820542877028,-32.25806451612903
225.00824206014872,-48.387096774193544
226.00827869152715,-70.96774193548387
227.00831532290562,-87.09677419354838
228.00835195428405,-74.19354838709677
229.0083885856625,-51.61290322580645
230.00842521704092,-38.70967741935483
231.00846184841936,-32.25806451612903
232.0084984797978,-19.354838709677416
233.00853511117623,-9.677419354838708
234.00857174255466,16.129032258064516
235.00860837393313,29.03225806451613
236.00864500531156,32.25806451612903
237.00868163669,22.58064516129032
238.00871826806844,6.451612903225806
239.00875489944687,-25.806451612903224
240.0087915308253,-64.51612903225806
241.00882816220374,-93.54838709677418
242.00886479358218,-122.58064516129032
243.0089014249606,-135.48387096774192
244.00893805633908,-119.35483870967742
245.0089746877175,-99.99999999999999
246.00901131909595,-74.19354838709677
247.00904795047438,-51.61290322580645
248.00908458185282,-51.61290322580645
249.00912121323125,-80.64516129032258
250.0091578446097,-87.09677419354838
251.00919447598812,-77.41935483870967
252.0092311073666,-64.51612903225806
253.00926773874502,-61.29032258064516
254.00930437012346,-64.51612903225806
255.0093410015019,-61.29032258064516
256.00937763288033,-61.29032258064516
257.0094142642588,-64.51612903225806
258.0094508956372,-67.74193548387096
259.00948752701566,-80.64516129032258
260.0095241583941,-87.09677419354838
261.00956078977254,-83.87096774193549
262.00959742115094,-80.64516129032258
263.0096340525294,-61.29032258064516
264.0096706839078,-41.935483870967744
265.0097073152863,-25.806451612903224
266.00974394666474,0.0
267.00978057804315,19.354838709677416
268.0098172094216,25.806451612903224
269.0098538408,25.806451612903224
270.0098904721785,22.58064516129032
271.0099271035569,3.225806451612903
272.00996373493535,-9.677419354838708
273.01000036631376,-22.58064516129032
274.0100369976922,-64.51612903225806
275.0100736290707,-106.4516129032258
276.0101102604491,-122.58064516129032
277.01014689182756,-90.32258064516128
278.01018352320597,-41.935483870967744
279.01022015458443,0.0
280.01025678596284,0.0
281.0102934173413,-12.903225806451612
282.01033004871977,-16.129032258064516
283.0103666800982,6.451612903225806
284.01040331147664,3.225806451612903
285.01043994285504,9.677419354838708
286.0104765742335,16.129032258064516
287.0105132056119,-3.225806451612903
288.0105498369904,-12.903225806451612
289.0105864683688,-22.58064516129032
290.01062309974725,-32.25806451612903
291.0106597311257,-38.70967741935483
292.0106963625041,-41.935483870967744
293.0107329938826,-45.16129032258064
294.010769625261,-58.06451612903226
295.01080625663946,-64.51612903225806
296.01084288801786,-70.96774193548387
297.0108795193963,-54.83870967741935
298.01091615077473,-16.129032258064516
299.0109527821532,9.677419354838708
300.01098941353166,16.129032258064516
301.01102604491007,6.451612903225806
302.01106267628853,-12.903225806451612
303.01109930766694,-6.451612903225806
304.0111359390454,-6.451612903225806
305.0111725704238,-16.129032258064516
306.0112092018023,-22.58064516129032
307.0112458331807,-3.225806451612903
308.01128246455914,6.451612903225806
309.0113190959376,-9.677419354838708
310.011355727316,-35.483870967741936
311.0113923586945,-51.61290322580645
312.0114289900729,-38.70967741935483
313.01146562145135,22.58064516129032
314.01150225282976,58.06451612903226
315.0115388842082,48.387096774193544
316.0115755155867,41.935483870967744
317.0116121469651,45.16129032258064
318.01164877834356,64.51612903225806
319.01168540972196,77.41935483870967
320.0117220411004,83.87096774193549
321.01175867247883,77.41935483870967
322.0117953038573,45.16129032258064
323.0118319352357,16.129032258064516
324.01186856661417,3.225806451612903
325.01190519799263,-12.903225806451612
326.01194182937104,-19.354838709677416
327.0119784607495,-25.806451612903224
328.0120150921279,6.451612903225806
329.0120517235064,25.806451612903224
330.0120883548848,19.354838709677416
331.01212498626325,22.58064516129032
332.01216161764165,16.129032258064516
333.0121982490201,9.677419354838708
334.0122348803986,-6.451612903225806
335.012271511777,-22.58064516129032
336.01230814315545,-32.25806451612903
337.01234477453386,-48.387096774193544
338.0123814059123,-54.83870967741935
339.01241803729073,-41.935483870967744
340.0124546686692,-32.25806451612903
341.0124913000476,-16.129032258064516
342.01252793142606,-9.677419354838708
343.0125645628045,-3.225806451612903
344.01260119418293,-6.451612903225806
345.0126378255614,-6.451612903225806
346.0126744569398,-16.129032258064516
347.01271108831827,-19.354838709677416
348.0127477196967,-9.677419354838708
349.01278435107514,-6.451612903225806
350.0128209824536,12.903225806451612
351.012857613832,25.806451612903224
352.0128942452105,19.354838709677416
353.0129308765889,16.129032258064516
354.01296750796735,22.58064516129032
355.01300413934575,22.58064516129032
356.0130407707242,3.225806451612903
357.0130774021026,-9.677419354838708
358.0131140334811,-25.806451612903224
359.01315066485955,-32.25806451612903
360.01318729623796,-29.03225806451613
361.0132239276164,-32.25806451612903
362.01326055899483,-32.25806451612903
363.0132971903733,-48.387096774193544
364.0133338217517,-48.387096774193544
365.01337045313016,-45.16129032258064
366.0134070845086,-16.129032258064516
367.01344371588704,38.70967741935483
368.0134803472655,48.387096774193544
369.0135169786439,3.225806451612903
370.01355361002237,-41.935483870967744
371.0135902414008,-35.483870967741936
372.01362687277924,3.225806451612903
373.01366350415765,48.387096774193544
374.0137001355361,51.61290322580645
375.0137367669145,58.06451612903226
376.013773398293,58.06451612903226
377.01381002967145,48.387096774193544
378.01384666104985,32.25806451612903
379.0138832924283,16.129032258064516
380.0139199238067,12.903225806451612
381.0139565551852,19.354838709677416
382.0139931865636,19.354838709677416
383.01402981794206,9.677419354838708
384.01406644932047,3.225806451612903
385.01410308069893,12.903225806451612
386.0141397120774,32.25806451612903
387.0141763434558,38.70967741935483
388.01421297483427,29.03225806451613
389.0142496062127,12.903225806451612
390.01428623759114,3.225806451612903
391.01432286896954,-9.677419354838708
392.014359500348,-6.451612903225806
393.01439613172647,-12.903225806451612
394.0144327631049,-25.806451612903224
395.01446939448334,-19.354838709677416
396.01450602586175,-9.677419354838708
397.0145426572402,-12.903225806451612
398.0145792886186,-9.677419354838708
399.0146159199971,-9.677419354838708
400.0146525513755,-12.903225806451612
401.01468918275395,-16.129032258064516
402.0147258141324,-19.354838709677416
403.0147624455108,-25.806451612903224
404.0147990768893,-29.03225806451613
405.0148357082677,-25.806451612903224
406.01487233964616,-3.225806451612903
407.01490897102457,0.0
408.01494560240303,-16.129032258064516
409.01498223378144,-51.61290322580645
410.0150188651599,-67.74193548387096
411.01505549653837,-70.96774193548387
412.0150921279168,-74.19354838709677
413.01512875929524,-70.96774193548387
414.01516539067364,-48.387096774193544
415.0152020220521,-29.03225806451613
416.0152386534305,-22.58064516129032
417.015275284809,-16.129032258064516
418.0153119161874,-3.225806451612903
419.01534854756585,19.354838709677416
420.0153851789443,32.25806451612903
421.0154218103227,35.483870967741936
422.0154584417012,22.58064516129032
423.0154950730796,3.225806451612903
424.01553170445806,3.225806451612903
425.01556833583646,6.451612903225806
426.0156049672149,-9.677419354838708
427.0156415985934,-29.03225806451613
428.0156782299718,-25.806451612903224
429.01571486135026,-9.677419354838708
430.01575149272867,-9.677419354838708
431.01578812410713,-12.903225806451612
432.01582475548554,-9.677419354838708
433.015861386864,-9.677419354838708
434.0158980182424,-6.451612903225806
435.0159346496209,12.903225806451612
436.01597128099934,32.25806451612903
437.01600791237775,54.83870967741935
438.0160445437562,48.387096774193544
439.0160811751346,29.03225806451613
440.0161178065131,16.129032258064516
441.0161544378915,6.451612903225806
442.01619106926995,-9.677419354838708
443.01622770064836,-29.03225806451613
444.0162643320268,-35.483870967741936
445.0163009634053,-12.903225806451612
446.0163375947837,-6.451612903225806
447.01637422616216,-12.903225806451612
448.01641085754056,-16.129032258064516
449.016447488919,-9.677419354838708
450.01648412029743,16.129032258064516
451.0165207516759,61.29032258064516
452.0165573830543,90.32258064516128
453.01659401443277,96.77419354838709
454.01663064581123,93.54838709677418
455.01666727718964,54.83870967741935
456.0167039085681,25.806451612903224
457.0167405399465,12.903225806451612
458.016777171325,25.806451612903224
459.0168138027034,6.451612903225806
460.01685043408185,-19.354838709677416
461.0168870654603,-19.354838709677416
462.0169236968387,-12.903225806451612
463.0169603282172,3.225806451612903
464.0169969595956,25.806451612903224
465.01703359097405,41.935483870967744
466.01707022235246,58.06451612903226
467.0171068537309,61.29032258064516
468.01714348510933,67.74193548387096
469.0171801164878,90.32258064516128
470.01721674786626,106.4516129032258
471.01725337924466,87.09677419354838
472.0172900106231,45.16129032258064
473.01732664200154,12.903225806451612
474.01736327338,-12.903225806451612
475.0173999047584,-32.25806451612903
476.01743653613687,-25.806451612903224
477.0174731675153,-16.129032258064516
478.01750979889374,-3.225806451612903
479.0175464302722,19.354838709677416
480.0175830616506,45.16129032258064
481.0176196930291,48.387096774193544
482.0176563244075,48.387096774193544
483.01769295578595,41.935483870967744
484.01772958716435,51.61290322580645
485.0177662185428,74.19354838709677
486.0178028499212,90.32258064516128
487.0178394812997,83.87096774193549
488.01787611267815,45.16129032258064
489.01791274405656,9.677419354838708
490.017949375435,-12.903225806451612
491.01798600681343,-32.25806451612903
492.0180226381919,-29.03225806451613
493.0180592695703,-12.903225806451612
494.01809590094877,-16.129032258064516
495.01813253232723,-19.354838709677416
496.01816916370564,-22.58064516129032
497.0182057950841,-29.03225806451613
498.0182424264625,-25.806451612903224
499.01827905784097,-25.806451612903224
500.0183156892194,-19.354838709677416
501.01835232059784,-16.129032258064516
502.01838895197625,-9.677419354838708
503.0184255833547,6.451612903225806
504.0184622147332,22.58064516129032
505.0184988461116,22.58064516129032
506.01853547749005,38.70967741935483
507.01857210886845,35.483870967741936
508.0186087402469,25.806451612903224
509.0186453716253,9.677419354838708
510.0186820030038,0.0
511.0187186343822,-6.451612903225806
512.0187552657607,9.677419354838708
513.0187918971391,29.03225806451613
514.0188285285176,41.935483870967744
515.018865159896,51.61290322580645
516.0189017912744,48.387096774193544
517.0189384226528,38.70967741935483
518.0189750540313,9.677419354838708
519.0190116854097,-9.677419354838708
520.0190483167881,-38.70967741935483
521.0190849481667,-64.51612903225806
522.0191215795451,-74.19354838709677
523.0191582109235,-70.96774193548387
524.0191948423019,-67.74193548387096
525.0192314736804,-64.51612903225806
526.0192681050588,-64.51612903225806
527.0193047364372,-64.51612903225806
528.0193413678156,-67.74193548387096
529.0193779991941,-83.87096774193549
530.0194146305726,-83.87096774193549
531.019451261951,-80.64516129032258
532.0194878933295,-67.74193548387096
533.0195245247079,-54.83870967741935
534.0195611560863,-51.61290322580645
535.0195977874647,-38.70967741935483
536.0196344188432,-25.806451612903224
537.0196710502216,-12.903225806451612
538.0197076816,-3.225806451612903
539.0197443129786,-3.225806451612903
540.019780944357,-25.806451612903224
541.0198175757354,-61.29032258064516
542.0198542071138,-83.87096774193549
543.0198908384923,-74.19354838709677
544.0199274698707,-41.935483870967744
545.0199641012491,-16.129032258064516
546.0200007326275,6.451612903225806
547.020037364006,38.70967741935483
548.0200739953845,64.51612903225806
549.0201106267629,77.41935483870967
550.0201472581414,70.96774193548387
551.0201838895198,61.29032258064516
552.0202205208982,38.70967741935483
553.0202571522766,19.354838709677416
554.0202937836551,25.806451612903224
555.0203304150335,48.387096774193544
556.0203670464119,61.29032258064516
557.0204036777905,58.06451612903226
558.0204403091689,64.51612903225806
559.0204769405473,48.387096774193544
560.0205135719257,48.387096774193544
561.0205502033042,29.03225806451613
562.0205868346826,9.677419354838708
563.020623466061,3.225806451612903
564.0206600974395,16.129032258064516
565.0206967288179,25.806451612903224
566.0207333601963,25.806451612903224
567.0207699915748,25.806451612903224
568.0208066229533,35.483870967741936
569.0208432543317,29.03225806451613
570.0208798857101,22.58064516129032
571.0209165170885,16.129032258064516
572.020953148467,9.677419354838708
573.0209897798454,-12.903225806451612
574.0210264112238,-48.387096774193544
575.0210630426023,-70.96774193548387
576.0210996739808,-87.09677419354838
577.0211363053592,-80.64516129032258
578.0211729367376,-64.51612903225806
579.0212095681161,-54.83870967741935
580.0212461994945,-32.25806451612903
581.0212828308729,3.225806451612903
582.0213194622514,25.806451612903224
583.0213560936298,45.16129032258064
584.0213927250082,70.96774193548387
585.0214293563866,83.87096774193549
586.0214659877652,93.54838709677418
587.0215026191436,109.6774193548387
588.021539250522,132.258064516129
589.0215758819005,167.74193548387098
590.0216125132789,196.7741935483871
591.0216491446573,206.4516129032258
592.0216857760357,212.9032258064516
593.0217224074142,222.5806451612903
594.0217590387927,232.25806451612905
595.0217956701711,254.83870967741933
596.0218323015495,283.8709677419355
597.021868932928,309.67741935483866
598.0219055643064,329.0322580645161
599.0219421956848,354.83870967741933
600.0219788270633,380.64516129032256
601.0220154584417,390.3225806451613
602.0220520898201,383.8709677419355
603.0220887211985,374.1935483870967
604.0221253525771,380.64516129032256
605.0221619839555,393.5483870967742
606.0221986153339,425.8064516129032
607.0222352467124,448.3870967741935
608.0222718780908,445.1612903225806
609.0223085094692,409.6774193548387
610.0223451408476,361.2903225806451
611.0223817722261,322.5806451612903
612.0224184036045,290.32258064516134
613.022455034983,251.61290322580643
614.0224916663614,203.2258064516129
615.0225282977399,125.80645161290322
616.0225649291183,58.06451612903226
617.0226015604967,0.0
618.0226381918752,-25.806451612903224
619.0226748232536,-58.06451612903226
620.022711454632,-96.77419354838709
621.0227480860104,-138.70967741935482
622.022784717389,-164.51612903225805
623.0228213487674,-196.7741935483871
624.0228579801458,-225.8064516129032
625.0228946115243,-229.0322580645161
626.0229312429027,-235.48387096774195
627.0229678742811,-251.61290322580643
628.0230045056595,-241.93548387096774
629.023041137038,-241.93548387096774
630.0230777684164,-229.0322580645161
631.0231143997948,-193.54838709677418
632.0231510311734,-148.38709677419354
633.0231876625518,-125.80645161290322
634.0232242939302,-99.99999999999999
635.0232609253086,-70.96774193548387
636.0232975566871,-70.96774193548387
637.0233341880655,-64.51612903225806
638.0233708194439,-58.06451612903226
639.0234074508223,-67.74193548387096
640.0234440822009,-77.41935483870967
641.0234807135793,-109.6774193548387
642.0235173449577,-112.9032258064516
643.0235539763362,-116.12903225806453
644.0235906077146,-119.35483870967742
645.023627239093,-112.9032258064516
646.0236638704714,-83.87096774193549
647.0237005018499,-58.06451612903226
648.0237371332283,-48.387096774193544
649.0237737646067,-45.16129032258064
650.0238103959853,-48.387096774193544
651.0238470273637,-54.83870967741935
652.0238836587421,-64.51612903225806
653.0239202901205,-64.51612903225806
654.023956921499,-64.51612903225806
655.0239935528774,-45.16129032258064
656.0240301842558,-29.03225806451613
657.0240668156342,-22.58064516129032
658.0241034470127,-29.03225806451613
659.0241400783912,-45.16129032258064
660.0241767097696,-64.51612903225806
661.0242133411481,-64.51612903225806
662.0242499725265,-61.29032258064516
663.0242866039049,-64.51612903225806
664.0243232352833,-61.29032258064516
665.0243598666618,-45.16129032258064
666.0243964980402,-32.25806451612903
667.0244331294186,-32.25806451612903
668.0244697607972,-35.483870967741936
669.0245063921756,-38.70967741935483
670.024543023554,-29.03225806451613
671.0245796549324,-16.129032258064516
672.0246162863109,3.225806451612903
673.0246529176893,12.903225806451612
674.0246895490677,12.903225806451612
675.0247261804462,6.451612903225806
676.0247628118246,6.451612903225806
677.024799443203,-6.451612903225806
678.0248360745815,-12.903225806451612
679.02487270596,-22.58064516129032
680.0249093373384,-9.677419354838708
681.0249459687168,0.0
682.0249826000952,6.451612903225806
683.0250192314737,6.451612903225806
684.0250558628521,3.225806451612903
685.0250924942305,9.677419354838708
686.025129125609,9.677419354838708
687.0251657569875,0.0
688.0252023883659,-32.25806451612903
689.0252390197443,-70.96774193548387
690.0252756511228,-77.41935483870967
691.0253122825012,-74.19354838709677
692.0253489138796,-74.19354838709677
693.0253855452581,-74.19354838709677
694.0254221766365,-83.87096774193549
695.025458808015,-87.09677419354838
696.0254954393934,-87.09677419354838
697.0255320707719,-67.74193548387096
698.0255687021503,-22.58064516129032
699.0256053335287,16.129032258064516
700.0256419649072,41.935483870967744
701.0256785962856,41.935483870967744
702.025715227664,41.935483870967744
703.0257518590424,61.29032258064516
704.025788490421,70.96774193548387
705.0258251217994,67.74193548387096
706.0258617531778,54.83870967741935
707.0258983845562,38.70967741935483
708.0259350159347,22.58064516129032
709.0259716473131,3.225806451612903
710.0260082786915,-9.677419354838708
711.02604491007,-12.903225806451612
712.0260815414484,-16.129032258064516
713.0261181728268,-6.451612903225806
714.0261548042052,12.903225806451612
715.0261914355838,25.806451612903224
716.0262280669622,19.354838709677416
717.0262646983406,38.70967741935483
718.0263013297191,38.70967741935483
719.0263379610975,12.903225806451612
720.0263745924759,0.0
721.0264112238543,6.451612903225806
722.0264478552328,0.0
723.0264844866113,-6.451612903225806
724.0265211179897,-6.451612903225806
725.0265577493681,-6.451612903225806
726.0265943807466,0.0
727.026631012125,19.354838709677416
728.0266676435034,48.387096774193544
729.0267042748819,70.96774193548387
730.0267409062603,70.96774193548387
731.0267775376387,64.51612903225806
732.0268141690171,64.51612903225806
733.0268508003957,64.51612903225806
734.0268874317741,48.387096774193544
735.0269240631525,51.61290322580645
736.026960694531,32.25806451612903
737.0269973259094,6.451612903225806
738.0270339572878,3.225806451612903
739.0270705886662,32.25806451612903
740.0271072200447,77.41935483870967
741.0271438514231,93.54838709677418
742.0271804828016,87.09677419354838
743.0272171141801,80.64516129032258
744.0272537455585,70.96774193548387
745.0272903769369,51.61290322580645
746.0273270083153,38.70967741935483
747.0273636396938,41.935483870967744
748.0274002710722,48.387096774193544
749.0274369024506,38.70967741935483
750.027473533829,35.483870967741936
751.0275101652076,41.935483870967744
752.027546796586,61.29032258064516
753.0275834279644,80.64516129032258
754.0276200593429,70.96774193548387
755.0276566907213,51.61290322580645
756.0276933220997,48.387096774193544
757.0277299534781,51.61290322580645
758.0277665848566,45.16129032258064
759.027803216235,35.483870967741936
760.0278398476134,32.25806451612903
761.027876478992,45.16129032258064
762.0279131103704,58.06451612903226
763.0279497417488,64.51612903225806
764.0279863731272,64.51612903225806
765.0280230045057,70.96774193548387
766.0280596358841,87.09677419354838
767.0280962672625,106.4516129032258
768.0281328986409,103.2258064516129
769.0281695300195,87.09677419354838
770.0282061613979,80.64516129032258
771.0282427927763,67.74193548387096
772.0282794241548,48.387096774193544
773.0283160555332,25.806451612903224
774.0283526869116,12.903225806451612
775.02838931829,-6.451612903225806
776.0284259496685,-12.903225806451612
777.0284625810469,-9.677419354838708
778.0284992124253,-3.225806451612903
779.0285358438039,-9.677419354838708
780.0285724751823,-9.677419354838708
781.0286091065607,9.677419354838708
782.0286457379391,35.483870967741936
783.0286823693176,38.70967741935483
784.028719000696,38.70967741935483
785.0287556320744,38.70967741935483
786.0287922634529,54.83870967741935
787.0288288948313,64.51612903225806
788.0288655262098,54.83870967741935
789.0289021575882,29.03225806451613
790.0289387889667,12.903225806451612
791.0289754203451,3.225806451612903
792.0290120517235,0.0
793.0290486831019,19.354838709677416
794.0290853144804,41.935483870967744
795.0291219458588,45.16129032258064
796.0291585772372,25.806451612903224
797.0291952086158,12.903225806451612
798.0292318399942,12.903225806451612
799.0292684713726,32.25806451612903
800.029305102751,77.41935483870967
801.0293417341295,109.6774193548387
802.0293783655079,141.93548387096774
803.0294149968863,164.51612903225805
804.0294516282648,151.61290322580646
805.0294882596432,125.80645161290322
806.0295248910217,103.2258064516129
807.0295615224001,77.41935483870967
808.0295981537786,54.83870967741935
809.029634785157,54.83870967741935
810.0296714165354,54.83870967741935
811.0297080479139,51.61290322580645
812.0297446792923,45.16129032258064
813.0297813106707,61.29032258064516
814.0298179420491,74.19354838709677
815.0298545734277,87.09677419354838
816.0298912048061,103.2258064516129
817.0299278361845,116.12903225806453
818.0299644675629,125.80645161290322
819.0300010989414,116.12903225806453
820.0300377303198,109.6774193548387
821.0300743616982,99.99999999999999
822.0301109930767,74.19354838709677
823.0301476244551,54.83870967741935
824.0301842558335,54.83870967741935
825.030220887212,45.16129032258064
826.0302575185905,32.25806451612903
827.0302941499689,19.354838709677416
828.0303307813473,41.935483870967744
829.0303674127258,74.19354838709677
830.0304040441042,93.54838709677418
831.0304406754826,99.99999999999999
832.030477306861,96.77419354838709
833.0305139382396,90.32258064516128
834.030550569618,70.96774193548387
835.0305872009964,67.74193548387096
836.0306238323748,90.32258064516128
837.0306604637533,77.41935483870967
838.0306970951317,70.96774193548387
839.0307337265101,93.54838709677418
840.0307703578886,112.9032258064516
841.030806989267,93.54838709677418
842.0308436206454,64.51612903225806
843.0308802520238,48.387096774193544
844.0309168834024,41.935483870967744
845.0309535147808,35.483870967741936
846.0309901461592,29.03225806451613
847.0310267775377,32.25806451612903
848.0310634089161,41.935483870967744
849.0311000402945,54.83870967741935
850.0311366716729,67.74193548387096
851.0311733030514,70.96774193548387
852.0312099344299,80.64516129032258
853.0312465658083,74.19354838709677
854.0312831971868,54.83870967741935
855.0313198285652,45.16129032258064
856.0313564599436,38.70967741935483
857.031393091322,0.0
858.0314297227005,-51.61290322580645
859.0314663540789,-67.74193548387096
860.0315029854573,-61.29032258064516
861.0315396168357,-48.387096774193544
862.0315762482143,-32.25806451612903
863.0316128795927,-16.129032258064516
864.0316495109711,-6.451612903225806
865.0316861423496,-3.225806451612903
866.031722773728,-9.677419354838708
867.0317594051064,-12.903225806451612
868.0317960364848,-19.354838709677416
869.0318326678633,-22.58064516129032
870.0318692992417,-19.354838709677416
871.0319059306202,-16.129032258064516
872.0319425619987,-16.129032258064516
873.0319791933771,-16.129032258064516
874.0320158247555,-19.354838709677416
875.0320524561339,-35.483870967741936
876.0320890875124,-51.61290322580645
877.0321257188908,-64.51612903225806
878.0321623502692,-64.51612903225806
879.0321989816478,-64.51612903225806
880.0322356130262,-80.64516129032258
881.0322722444046,-96.77419354838709
882.032308875783,-106.4516129032258
883.0323455071615,-87.09677419354838
884.0323821385399,-67.74193548387096
885.0324187699183,-61.29032258064516
886.0324554012967,-58.06451612903226
887.0324920326752,-48.387096774193544
888.0325286640536,-41.935483870967744
889.032565295432,-25.806451612903224
890.0326019268106,-29.03225806451613
891.032638558189,-67.74193548387096
892.0326751895674,-99.99999999999999
893.0327118209458,-112.9032258064516
894.0327484523243,-93.54838709677418
895.0327850837027,-58.06451612903226
896.0328217150811,-48.387096774193544
897.0328583464596,-58.06451612903226
898.032894977838,-74.19354838709677
899.0329316092165,-103.2258064516129
900.0329682405949,-83.87096774193549
901.0330048719734,-22.58064516129032
902.0330415033518,0.0
903.0330781347302,-6.451612903225806
904.0331147661086,-25.806451612903224
905.0331513974871,-45.16129032258064
906.0331880288655,-61.29032258064516
907.033224660244,-74.19354838709677
908.0332612916225,-80.64516129032258
909.0332979230009,-74.19354838709677
910.0333345543793,-41.935483870967744
911.0333711857577,-19.354838709677416
912.0334078171362,-9.677419354838708
913.0334444485146,19.354838709677416
914.033481079893,25.806451612903224
915.0335177112715,9.677419354838708
916.03355434265,9.677419354838708
917.0335909740284,3.225806451612903
918.0336276054068,3.225806451612903
919.0336642367853,3.225806451612903
920.0337008681637,6.451612903225806
921.0337374995421,0.0
922.0337741309206,0.0
923.033810762299,0.0
924.0338473936774,-25.806451612903224
925.0338840250558,-58.06451612903226
926.0339206564344,-90.32258064516128
927.0339572878128,-112.9032258064516
928.0339939191912,-93.54838709677418
929.0340305505696,-77.41935483870967
930.0340671819481,-64.51612903225806
931.0341038133265,-77.41935483870967
932.0341404447049,-70.96774193548387
933.0341770760834,-38.70967741935483
934.0342137074618,-19.354838709677416
935.0342503388403,-12.903225806451612
936.0342869702187,-16.129032258064516
937.0343236015972,-19.354838709677416
938.0343602329756,-16.129032258064516
939.034396864354,-41.935483870967744
940.0344334957325,-87.09677419354838
941.0344701271109,-119.35483870967742
942.0345067584893,-132.258064516129
943.0345433898677,-129.03225806451613
944.0345800212463,-103.2258064516129
945.0346166526247,-70.96774193548387
946.0346532840031,-64.51612903225806
947.0346899153815,-70.96774193548387
948.03472654676,-74.19354838709677
949.0347631781384,-74.19354838709677
950.0347998095168,-64.51612903225806
951.0348364408953,-38.70967741935483
952.0348730722737,-25.806451612903224
953.0349097036521,3.225806451612903
954.0349463350306,9.677419354838708
955.0349829664091,0.0
956.0350195977875,-22.58064516129032
957.0350562291659,-41.935483870967744
958.0350928605444,-54.83870967741935
959.0351294919228,-64.51612903225806
960.0351661233012,-77.41935483870967
961.0352027546796,-83.87096774193549
962.0352393860582,-99.99999999999999
963.0352760174366,-83.87096774193549
964.035312648815,-51.61290322580645
965.0353492801935,-12.903225806451612
966.0353859115719,9.677419354838708
967.0354225429503,3.225806451612903
968.0354591743287,6.451612903225806
969.0354958057072,12.903225806451612
970.0355324370856,22.58064516129032
971.035569068464,32.25806451612903
972.0356056998424,35.483870967741936
973.035642331221,38.70967741935483
974.0356789625994,19.354838709677416
975.0357155939778,6.451612903225806
976.0357522253563,-9.677419354838708
977.0357888567347,-35.483870967741936
978.0358254881131,-48.387096774193544
979.0358621194915,-48.387096774193544
980.03589875087,-41.935483870967744
981.0359353822485,-32.25806451612903
982.0359720136269,-32.25806451612903
983.0360086450054,-25.806451612903224
984.0360452763838,3.225806451612903
985.0360819077622,38.70967741935483
986.0361185391406,54.83870967741935
987.0361551705191,58.06451612903226
988.0361918018975,41.935483870967744
989.0362284332759,9.677419354838708
990.0362650646545,-6.451612903225806
991.0363016960329,-22.58064516129032
992.0363383274113,-35.483870967741936
993.0363749587897,-29.03225806451613
994.0364115901682,-9.677419354838708
995.0364482215466,3.225806451612903
996.036484852925,35.483870967741936
997.0365214843034,77.41935483870967
998.0365581156819,93.54838709677418
999.0365947470603,93.54838709677418
1000.0366313784388,77.41935483870967
1001.0366680098173,67.74193548387096
1002.0367046411957,58.06451612903226
1003.0367412725741,54.83870967741935
1004.0367779039525,45.16129032258064
1005.036814535331,16.129032258064516
1006.0368511667094,6.451612903225806
1007.0368877980878,-16.129032258064516
1008.0369244294664,-35.483870967741936
1009.0369610608448,-45.16129032258064
1010.0369976922232,-45.16129032258064
1011.0370343236016,-51.61290322580645
1012.0370709549801,-45.16129032258064
1013.0371075863585,-25.806451612903224
1014.0371442177369,-9.677419354838708
1015.0371808491153,22.58064516129032
1016.0372174804938,41.935483870967744
1017.0372541118722,32.25806451612903
1018.0372907432507,25.806451612903224
1019.0373273746292,29.03225806451613
1020.0373640060076,29.03225806451613
1021.037400637386,12.903225806451612
1022.0374372687644,-12.903225806451612
1023.0374739001429,-35.483870967741936
1024.0375105315213,-67.74193548387096
1025.0375471628997,-93.54838709677418
1026.0375837942781,-80.64516129032258
1027.0376204256565,-61.29032258064516
1028.0376570570352,-48.387096774193544
1029.0376936884136,-9.677419354838708
1030.037730319792,29.03225806451613
1031.0377669511704,54.83870967741935
1032.0378035825488,83.87096774193549
1033.0378402139272,112.9032258064516
1034.0378768453056,106.4516129032258
1035.0379134766843,74.19354838709677
1036.0379501080627,48.387096774193544
1037.037986739441,29.03225806451613
1038.0380233708195,22.58064516129032
1039.0380600021979,16.129032258064516
1040.0380966335763,12.903225806451612
1041.0381332649547,29.03225806451613
1042.0381698963333,29.03225806451613
1043.0382065277117,25.806451612903224
1044.0382431590901,32.25806451612903
1045.0382797904686,41.935483870967744
1046.038316421847,38.70967741935483
1047.0383530532254,35.483870967741936
1048.0383896846038,45.16129032258064
1049.0384263159822,48.387096774193544
1050.0384629473608,45.16129032258064
1051.0384995787392,25.806451612903224
1052.0385362101176,22.58064516129032
1053.038572841496,45.16129032258064
1054.0386094728744,54.83870967741935
1055.0386461042528,54.83870967741935
1056.0386827356313,41.935483870967744
1057.03871936701,12.903225806451612
1058.0387559983883,-9.677419354838708
1059.0387926297667,-16.129032258064516
1060.038829261145,-19.354838709677416
1061.0388658925235,-19.354838709677416
1062.038902523902,-9.677419354838708
1063.0389391552803,16.129032258064516
1064.038975786659,32.25806451612903
1065.0390124180374,38.70967741935483
1066.0390490494158,54.83870967741935
1067.0390856807942,58.06451612903226
1068.0391223121726,54.83870967741935
1069.039158943551,48.387096774193544
1070.0391955749294,54.83870967741935
1071.039232206308,38.70967741935483
1072.0392688376864,9.677419354838708
1073.0393054690649,-9.677419354838708
1074.0393421004433,-6.451612903225806
1075.0393787318217,3.225806451612903
1076.0394153632,9.677419354838708
1077.0394519945785,-3.225806451612903
1078.0394886259571,-6.451612903225806
1079.0395252573355,-9.677419354838708
1080.039561888714,25.806451612903224
1081.0395985200923,96.77419354838709
1082.0396351514707,116.12903225806453
1083.0396717828492,96.77419354838709
1084.0397084142276,77.41935483870967
1085.0397450456062,74.19354838709677
1086.0397816769846,67.74193548387096
1087.039818308363,70.96774193548387
1088.0398549397414,64.51612903225806
1089.0398915711198,38.70967741935483
1090.0399282024982,25.806451612903224
1091.0399648338766,19.354838709677416
1092.040001465255,9.677419354838708
1093.0400380966337,9.677419354838708
1094.040074728012,6.451612903225806
1095.0401113593905,9.677419354838708
1096.040147990769,16.129032258064516
1097.0401846221473,41.935483870967744
1098.0402212535257,70.96774193548387
1099.0402578849041,83.87096774193549
1100.0402945162828,93.54838709677418
1101.0403311476612,87.09677419354838
1102.0403677790396,74.19354838709677
1103.040404410418,64.51612903225806
1104.0404410417964,51.61290322580645
1105.0404776731748,38.70967741935483
1106.0405143045532,38.70967741935483
1107.0405509359318,29.03225806451613
1108.0405875673102,3.225806451612903
1109.0406241986886,-25.806451612903224
1110.040660830067,-38.70967741935483
1111.0406974614455,-25.806451612903224
1112.0407340928239,-9.677419354838708
1113.0407707242023,12.903225806451612
1114.040807355581,9.677419354838708
1115.0408439869593,22.58064516129032
1116.0408806183377,38.70967741935483
1117.0409172497161,48.387096774193544
1118.0409538810945,41.935483870967744
1119.040990512473,45.16129032258064
1120.0410271438514,51.61290322580645
1121.04106377523,45.16129032258064
1122.0411004066084,51.61290322580645
1123.0411370379868,51.61290322580645
1124.0411736693652,45.16129032258064
1125.0412103007436,25.806451612903224
1126.041246932122,-6.451612903225806
1127.0412835635004,-9.677419354838708
1128.041320194879,12.903225806451612
1129.0413568262575,29.03225806451613
1130.0413934576359,29.03225806451613
1131.0414300890143,38.70967741935483
1132.0414667203927,48.387096774193544
1133.041503351771,48.387096774193544
1134.0415399831495,22.58064516129032
1135.0415766145281,16.129032258064516
1136.0416132459065,9.677419354838708
1137.041649877285,12.903225806451612
1138.0416865086634,25.806451612903224
1139.0417231400418,16.129032258064516
1140.0417597714202,0.0
1141.0417964027986,-19.354838709677416
1142.041833034177,-29.03225806451613
1143.0418696655556,-16.129032258064516
1144.041906296934,-9.677419354838708
1145.0419429283124,6.451612903225806
1146.0419795596908,25.806451612903224
1147.0420161910693,58.06451612903226
1148.0420528224477,90.32258064516128
1149.042089453826,96.77419354838709
1150.0421260852047,103.2258064516129
1151.042162716583,112.9032258064516
1152.0421993479615,99.99999999999999
1153.04223597934,83.87096774193549
1154.0422726107183,70.96774193548387
1155.0423092420967,54.83870967741935
1156.0423458734751,32.25806451612903
1157.0423825048538,12.903225806451612
1158.0424191362322,-3.225806451612903
1159.0424557676106,0.0
1160.042492398989,6.451612903225806
1161.0425290303674,0.0
1162.0425656617458,-6.451612903225806
1163.0426022931242,3.225806451612903
1164.0426389245029,35.483870967741936
1165.0426755558813,54.83870967741935
1166.0427121872597,48.387096774193544
1167.042748818638,58.06451612903226
1168.0427854500165,67.74193548387096
1169.042822081395,90.32258064516128
1170.0428587127733,116.12903225806453
1171.042895344152,96.77419354838709
1172.0429319755303,64.51612903225806
1173.0429686069087,54.83870967741935
1174.0430052382872,54.83870967741935
1175.0430418696656,41.935483870967744
1176.043078501044,35.483870967741936
1177.0431151324224,16.129032258064516
1178.043151763801,16.129032258064516
1179.0431883951794,25.806451612903224
1180.0432250265578,41.935483870967744
1181.0432616579362,58.06451612903226
1182.0432982893146,67.74193548387096
1183.043334920693,87.09677419354838
1184.0433715520714,103.2258064516129
1185.0434081834499,112.9032258064516
1186.0434448148285,109.6774193548387
1187.043481446207,87.09677419354838
1188.0435180775853,70.96774193548387
1189.0435547089637,67.74193548387096
1190.0435913403421,58.06451612903226
1191.0436279717205,22.58064516129032
1192.043664603099,-6.451612903225806
1193.0437012344776,3.225806451612903
1194.043737865856,12.903225806451612
1195.0437744972344,12.903225806451612
1196.0438111286128,-16.129032258064516
1197.0438477599912,-25.806451612903224
1198.0438843913696,-6.451612903225806
1199.043921022748,16.129032258064516
1200.0439576541266,22.58064516129032
1201.043994285505,32.25806451612903
1202.0440309168835,45.16129032258064
1203.0440675482619,54.83870967741935
1204.0441041796403,58.06451612903226
1205.0441408110187,41.935483870967744
1206.044177442397,29.03225806451613
1207.0442140737757,3.225806451612903
1208.0442507051541,0.0
1209.0442873365325,9.677419354838708
1210.044323967911,9.677419354838708
1211.0443605992893,12.903225806451612
1212.0443972306678,16.129032258064516
1213.0444338620462,32.25806451612903
1214.0444704934248,45.16129032258064
1215.0445071248032,80.64516129032258
1216.0445437561816,99.99999999999999
1217.04458038756,96.77419354838709
1218.0446170189384,93.54838709677418
1219.0446536503168,83.87096774193549
1220.0446902816952,54.83870967741935
1221.0447269130739,32.25806451612903
1222.0447635444523,16.129032258064516
1223.0448001758307,9.677419354838708
1224.044836807209,-3.225806451612903
1225.0448734385875,-22.58064516129032
1226.044910069966,-38.70967741935483
1227.0449467013443,-12.903225806451612
1228.0449833327227,16.129032258064516
1229.0450199641014,22.58064516129032
1230.0450565954798,32.25806451612903
1231.0450932268582,38.70967741935483
1232.0451298582366,22.58064516129032
1233.045166489615,19.354838709677416
1234.0452031209934,19.354838709677416
1235.0452397523718,25.806451612903224
1236.0452763837504,51.61290322580645
1237.0453130151288,54.83870967741935
1238.0453496465072,41.935483870967744
1239.0453862778857,32.25806451612903
1240.045422909264,45.16129032258064
1241.0454595406425,61.29032258064516
1242.0454961720209,51.61290322580645
1243.0455328033995,35.483870967741936
1244.045569434778,29.03225806451613
1245.0456060661563,25.806451612903224
1246.0456426975347,25.806451612903224
1247.0456793289131,19.354838709677416
1248.0457159602915,12.903225806451612
1249.04575259167,19.354838709677416
1250.0457892230486,16.129032258064516
1251.045825854427,19.354838709677416
1252.0458624858054,35.483870967741936
1253.0458991171838,48.387096774193544
1254.0459357485622,51.61290322580645
1255.0459723799406,35.483870967741936
1256.046009011319,3.225806451612903
1257.0460456426977,-32.25806451612903
1258.046082274076,-61.29032258064516
1259.0461189054545,-74.19354838709677
1260.0461555368329,-74.19354838709677
1261.0461921682113,-70.96774193548387
1262.0462287995897,-16.129032258064516
1263.046265430968,38.70967741935483
1264.0463020623467,74.19354838709677
1265.0463386937251,103.2258064516129
1266.0463753251036,122.58064516129032
1267.046411956482,145.16129032258067
1268.0464485878604,158.06451612903226
1269.0464852192388,164.51612903225805
1270.0465218506172,161.29032258064515
1271.0465584819956,148.38709677419354
1272.0465951133742,122.58064516129032
1273.0466317447526,112.9032258064516
1274.046668376131,87.09677419354838
1275.0467050075094,58.06451612903226
1276.0467416388879,54.83870967741935
1277.0467782702663,54.83870967741935
1278.0468149016447,51.61290322580645
1279.0468515330233,45.16129032258064
1280.0468881644017,29.03225806451613
1281.0469247957801,16.129032258064516
1282.0469614271585,29.03225806451613
1283.046998058537,25.806451612903224
1284.0470346899153,16.129032258064516
1285.0470713212937,3.225806451612903
1286.0471079526724,-3.225806451612903
1287.0471445840508,6.451612903225806
1288.0471812154292,9.677419354838708
1289.0472178468076,9.677419354838708
1290.047254478186,19.354838709677416
1291.0472911095644,25.806451612903224
1292.0473277409428,38.70967741935483
1293.0473643723215,29.03225806451613
1294.0474010036999,6.451612903225806
1295.0474376350783,-16.129032258064516
1296.0474742664567,-22.58064516129032
1297.047510897835,0.0
1298.0475475292135,29.03225806451613
1299.047584160592,54.83870967741935
1300.0476207919705,80.64516129032258
1301.047657423349,90.32258064516128
1302.0476940547273,80.64516129032258
1303.0477306861058,64.51612903225806
1304.0477673174842,48.387096774193544
1305.0478039488626,32.25806451612903
1306.047840580241,16.129032258064516
1307.0478772116196,0.0
1308.047913842998,-12.903225806451612
1309.0479504743764,-22.58064516129032
1310.0479871057548,-9.677419354838708
1311.0480237371332,12.903225806451612
1312.0480603685116,45.16129032258064
1313.04809699989,87.09677419354838
1314.0481336312685,83.87096774193549
1315.048170262647,70.96774193548387
1316.0482068940255,64.51612903225806
1317.048243525404,61.29032258064516
1318.0482801567823,67.74193548387096
1319.0483167881607,74.19354838709677
1320.0483534195391,58.06451612903226
1321.0483900509175,35.483870967741936
1322.0484266822962,9.677419354838708
1323.0484633136746,16.129032258064516
1324.048499945053,29.03225806451613
1325.0485365764314,35.483870967741936
1326.0485732078098,25.806451612903224
1327.0486098391882,12.903225806451612
1328.0486464705666,12.903225806451612
1329.0486831019452,12.903225806451612
1330.0487197333237,6.451612903225806
1331.048756364702,25.806451612903224
1332.0487929960805,70.96774193548387
1333.0488296274589,80.64516129032258
1334.0488662588373,77.41935483870967
1335.0489028902157,70.96774193548387
1336.0489395215943,83.87096774193549
1337.0489761529727,80.64516129032258
1338.0490127843511,77.41935483870967
1339.0490494157295,77.41935483870967
1340.049086047108,67.74193548387096
1341.0491226784864,51.61290322580645
1342.0491593098648,41.935483870967744
1343.0491959412434,35.483870967741936
1344.0492325726218,38.70967741935483
1345.0492692040002,25.806451612903224
1346.0493058353786,19.354838709677416
1347.049342466757,22.58064516129032
1348.0493790981354,25.806451612903224
1349.0494157295138,9.677419354838708
1350.0494523608925,-9.677419354838708
1351.0494889922709,-38.70967741935483
1352.0495256236493,-64.51612903225806
1353.0495622550277,-58.06451612903226
1354.049598886406,-25.806451612903224
1355.0496355177845,19.354838709677416
1356.049672149163,29.03225806451613
1357.0497087805416,12.903225806451612
1358.04974541192,12.903225806451612
1359.0497820432984,16.129032258064516
1360.0498186746768,6.451612903225806
1361.0498553060552,25.806451612903224
1362.0498919374336,32.25806451612903
1363.049928568812,48.387096774193544
1364.0499652001904,83.87096774193549
1365.050001831569,96.77419354838709
1366.0500384629474,74.19354838709677
1367.0500750943258,64.51612903225806
1368.0501117257043,58.06451612903226
1369.0501483570827,51.61290322580645
1370.050184988461,70.96774193548387
1371.0502216198395,77.41935483870967
1372.050258251218,70.96774193548387
1373.0502948825965,64.51612903225806
1374.050331513975,51.61290322580645
1375.0503681453533,25.806451612903224
1376.0504047767317,3.225806451612903
1377.0504414081101,3.225806451612903
1378.0504780394886,12.903225806451612
1379.0505146708672,6.451612903225806
1380.0505513022456,-3.225806451612903
1381.050587933624,-6.451612903225806
1382.0506245650024,0.0
1383.0506611963808,19.354838709677416
1384.0506978277592,35.483870967741936
1385.0507344591376,38.70967741935483
1386.0507710905163,6.451612903225806
1387.0508077218947,-22.58064516129032
1388.050844353273,-22.58064516129032
1389.0508809846515,3.225806451612903
1390.05091761603,32.25806451612903
1391.0509542474083,38.70967741935483
1392.0509908787867,51.61290322580645
1393.0510275101653,41.935483870967744
1394.0510641415437,35.483870967741936
1395.0511007729222,38.70967741935483
1396.0511374043006,35.483870967741936
1397.051174035679,45.16129032258064
1398.0512106670574,61.29032258064516
1399.0512472984358,51.61290322580645
1400.0512839298144,32.25806451612903
1401.0513205611928,25.806451612903224
1402.0513571925712,25.806451612903224
1403.0513938239496,12.903225806451612
1404.051430455328,9.677419354838708
1405.0514670867065,32.25806451612903
1406.0515037180849,64.51612903225806
1407.0515403494633,87.09677419354838
1408.051576980842,112.9032258064516
1409.0516136122203,135.48387096774192
1410.0516502435987,167.74193548387098
1411.0516868749771,212.9032258064516
1412.0517235063555,258.06451612903226
1413.051760137734,300.0
1414.0517967691123,332.25806451612897
1415.051833400491,361.2903225806451
1416.0518700318694,383.8709677419355
1417.0519066632478,406.4516129032258
1418.0519432946262,432.25806451612897
1419.0519799260046,448.3870967741935
1420.052016557383,477.4193548387097
1421.0520531887614,496.7741935483871
1422.05208982014,500.0
1423.0521264515185,490.3225806451613
1424.0521630828969,461.2903225806451
1425.0521997142753,429.0322580645161
1426.0522363456537,416.12903225806446
1427.052272977032,416.12903225806446
1428.0523096084105,406.4516129032258
1429.0523462397891,383.8709677419355
1430.0523828711675,377.41935483870964
1431.052419502546,348.38709677419354
1432.0524561339244,316.1290322580645
1433.0524927653028,296.7741935483871
1434.0525293966812,274.19354838709677
1435.0525660280596,232.25806451612905
1436.0526026594382,167.74193548387098
1437.0526392908166,93.54838709677418
1438.052675922195,25.806451612903224
1439.0527125535734,-51.61290322580645
1440.0527491849518,-99.99999999999999
1441.0527858163302,-132.258064516129
1442.0528224477086,-164.51612903225805
1443.0528590790873,-183.8709677419355
1444.0528957104657,-187.09677419354836
1445.052932341844,-180.64516129032256
1446.0529689732225,-183.8709677419355
1447.053005604601,-187.09677419354836
1448.0530422359793,-180.64516129032256
1449.0530788673577,-177.41935483870967
1450.0531154987361,-161.29032258064515
1451.0531521301148,-138.70967741935482
1452.0531887614932,-116.12903225806453
1453.0532253928716,-93.54838709677418
1454.05326202425,-74.19354838709677
1455.0532986556284,-54.83870967741935
1456.0533352870068,-58.06451612903226
1457.0533719183852,-58.06451612903226
1458.0534085497638,-54.83870967741935
1459.0534451811423,-70.96774193548387
1460.0534818125207,-77.41935483870967
1461.053518443899,-77.41935483870967
1462.0535550752775,-58.06451612903226
1463.0535917066559,-41.935483870967744
1464.0536283380343,-38.70967741935483
1465.053664969413,-32.25806451612903
1466.0537016007913,-22.58064516129032
1467.0537382321697,-19.354838709677416
1468.0537748635481,-16.129032258064516
1469.0538114949265,-29.03225806451613
1470.053848126305,-25.806451612903224
1471.0538847576834,-29.03225806451613
1472.053921389062,-19.354838709677416
1473.0539580204404,-25.806451612903224
1474.0539946518188,-51.61290322580645
1475.0540312831972,-70.96774193548387
1476.0540679145756,-64.51612903225806
1477.054104545954,-48.387096774193544
1478.0541411773324,-67.74193548387096
1479.054177808711,-67.74193548387096
1480.0542144400895,-61.29032258064516
1481.054251071468,-41.935483870967744
1482.0542877028463,-3.225806451612903
1483.0543243342247,22.58064516129032
1484.054360965603,32.25806451612903
1485.0543975969815,51.61290322580645
1486.0544342283602,70.96774193548387
1487.0544708597386,70.96774193548387
1488.054507491117,77.41935483870967
1489.0545441224954,74.19354838709677
1490.0545807538738,70.96774193548387
1491.0546173852522,54.83870967741935
1492.0546540166306,16.129032258064516
1493.054690648009,-9.677419354838708
1494.0547272793876,-29.03225806451613
1495.054763910766,-32.25806451612903
1496.0548005421444,-29.03225806451613
1497.0548371735229,-32.25806451612903
1498.0548738049013,-19.354838709677416
1499.0549104362797,-9.677419354838708
1500.054947067658,0.0
1501.0549836990367,16.129032258064516
1502.0550203304151,19.354838709677416
1503.0550569617935,38.70967741935483
1504.055093593172,64.51612903225806
1505.0551302245503,61.29032258064516
1506.0551668559287,38.70967741935483
1507.0552034873072,0.0
1508.0552401186858,-38.70967741935483
1509.0552767500642,-58.06451612903226
1510.0553133814426,-51.61290322580645
1511.055350012821,-41.935483870967744
1512.0553866441994,-29.03225806451613
1513.0554232755778,-9.677419354838708
1514.0554599069562,9.677419354838708
1515.0554965383349,22.58064516129032
1516.0555331697133,32.25806451612903
1517.0555698010917,29.03225806451613
1518.05560643247,16.129032258064516
1519.0556430638485,9.677419354838708
1520.055679695227,-9.677419354838708
1521.0557163266053,-29.03225806451613
1522.055752957984,-16.129032258064516
1523.0557895893623,3.225806451612903
1524.0558262207408,19.354838709677416
1525.0558628521192,16.129032258064516
1526.0558994834976,-3.225806451612903
1527.055936114876,-25.806451612903224
1528.0559727462544,-45.16129032258064
1529.056009377633,-32.25806451612903
1530.0560460090114,-25.806451612903224
1531.0560826403898,-12.903225806451612
1532.0561192717682,6.451612903225806
1533.0561559031466,22.58064516129032
1534.056192534525,25.806451612903224
1535.0562291659035,35.483870967741936
1536.0562657972819,61.29032258064516
1537.0563024286605,77.41935483870967
1538.056339060039,70.96774193548387
1539.0563756914173,58.06451612903226
1540.0564123227957,41.935483870967744
1541.0564489541741,35.483870967741936
1542.0564855855525,29.03225806451613
1543.056522216931,35.483870967741936
1544.0565588483096,32.25806451612903
1545.056595479688,22.58064516129032
1546.0566321110664,16.129032258064516
1547.0566687424448,16.129032258064516
1548.0567053738232,16.129032258064516
1549.0567420052016,12.903225806451612
1550.05677863658,19.354838709677416
1551.0568152679587,19.354838709677416
1552.056851899337,9.677419354838708
1553.0568885307155,-3.225806451612903
1554.0569251620939,22.58064516129032
1555.0569617934723,64.51612903225806
1556.0569984248507,90.32258064516128
1557.057035056229,93.54838709677418
1558.0570716876077,80.64516129032258
1559.0571083189861,51.61290322580645
1560.0571449503645,32.25806451612903
1561.057181581743,12.903225806451612
1562.0572182131214,3.225806451612903
1563.0572548444998,16.129032258064516
1564.0572914758782,35.483870967741936
1565.0573281072568,41.935483870967744
1566.0573647386352,22.58064516129032
1567.0574013700136,-12.903225806451612
1568.057438001392,-6.451612903225806
1569.0574746327704,12.903225806451612
1570.0575112641488,19.354838709677416
1571.0575478955273,3.225806451612903
1572.0575845269059,-9.677419354838708
1573.0576211582843,-6.451612903225806
1574.0576577896627,6.451612903225806
1575.057694421041,19.354838709677416
1576.0577310524195,38.70967741935483
1577.057767683798,54.83870967741935
1578.0578043151763,64.51612903225806
1579.057840946555,61.29032258064516
1580.0578775779334,51.61290322580645
1581.0579142093118,61.29032258064516
1582.0579508406902,74.19354838709677
1583.0579874720686,80.64516129032258
1584.058024103447,77.41935483870967
1585.0580607348254,77.41935483870967
1586.0580973662038,74.19354838709677
1587.0581339975824,61.29032258064516
1588.0581706289609,54.83870967741935
1589.0582072603393,61.29032258064516
1590.0582438917177,54.83870967741935
1591.058280523096,38.70967741935483
1592.0583171544745,12.903225806451612
1593.058353785853,0.0
1594.0583904172315,-16.129032258064516
1595.05842704861,-12.903225806451612
1596.0584636799883,-6.451612903225806
1597.0585003113667,0.0
1598.0585369427451,9.677419354838708
1599.0585735741236,6.451612903225806
1600.058610205502,-6.451612903225806
1601.0586468368806,-9.677419354838708
1602.058683468259,0.0
1603.0587200996374,16.129032258064516
1604.0587567310158,19.354838709677416
1605.0587933623942,29.03225806451613
1606.0588299937726,29.03225806451613
1607.058866625151,38.70967741935483
1608.0589032565297,41.935483870967744
1609.058939887908,35.483870967741936
1610.0589765192865,29.03225806451613
1611.059013150665,29.03225806451613
1612.0590497820433,32.25806451612903
1613.0590864134217,41.935483870967744
1614.0591230448001,51.61290322580645
1615.0591596761788,83.87096774193549
1616.0591963075572,93.54838709677418
1617.0592329389356,96.77419354838709
1618.059269570314,96.77419354838709
1619.0593062016924,109.6774193548387
1620.0593428330708,116.12903225806453
1621.0593794644492,99.99999999999999
1622.0594160958278,83.87096774193549
1623.0594527272062,90.32258064516128
1624.0594893585846,96.77419354838709
1625.059525989963,90.32258064516128
1626.0595626213415,77.41935483870967
1627.0595992527199,77.41935483870967
1628.0596358840983,80.64516129032258
1629.0596725154767,87.09677419354838
1630.0597091468553,83.87096774193549
1631.0597457782337,74.19354838709677
1632.0597824096121,64.51612903225806
1633.0598190409905,77.41935483870967
1634.059855672369,77.41935483870967
1635.0598923037473,70.96774193548387
1636.0599289351258,64.51612903225806
1637.0599655665044,58.06451612903226
1638.0600021978828,58.06451612903226
1639.0600388292612,61.29032258064516
1640.0600754606396,64.51612903225806
1641.060112092018,77.41935483870967
1642.0601487233964,74.19354838709677
1643.0601853547748,54.83870967741935
1644.0602219861535,32.25806451612903
1645.0602586175319,29.03225806451613
1646.0602952489103,38.70967741935483
1647.0603318802887,58.06451612903226
1648.060368511667,74.19354838709677
1649.0604051430455,93.54838709677418
1650.060441774424,93.54838709677418
1651.0604784058025,77.41935483870967
1652.060515037181,93.54838709677418
1653.0605516685594,116.12903225806453
1654.0605882999378,112.9032258064516
1655.0606249313162,109.6774193548387
1656.0606615626946,106.4516129032258
1657.060698194073,96.77419354838709
1658.0607348254516,96.77419354838709
1659.06077145683,83.87096774193549
1660.0608080882084,64.51612903225806
1661.0608447195868,35.483870967741936
1662.0608813509652,3.225806451612903
1663.0609179823437,0.0
1664.060954613722,-12.903225806451612
1665.0609912451007,-25.806451612903224
1666.061027876479,-19.354838709677416
1667.0610645078575,29.03225806451613
1668.061101139236,77.41935483870967
1669.0611377706143,90.32258064516128
1670.0611744019927,93.54838709677418
1671.0612110333711,90.32258064516128
1672.0612476647495,96.77419354838709
1673.0612842961282,116.12903225806453
1674.0613209275066,103.2258064516129
1675.061357558885,80.64516129032258
1676.0613941902634,41.935483870967744
1677.0614308216418,9.677419354838708
1678.0614674530202,12.903225806451612
1679.0615040843986,32.25806451612903
1680.0615407157773,48.387096774193544
1681.0615773471557,64.51612903225806
1682.061613978534,67.74193548387096
1683.0616506099125,58.06451612903226
1684.0616872412909,58.06451612903226
1685.0617238726693,77.41935483870967
1686.0617605040477,77.41935483870967
1687.0617971354263,64.51612903225806
1688.0618337668047,45.16129032258064
1689.0618703981831,38.70967741935483
1690.0619070295616,29.03225806451613
1691.06194366094,19.354838709677416
1692.0619802923184,16.129032258064516
1693.0620169236968,9.677419354838708
1694.0620535550754,-16.129032258064516
1695.0620901864538,-48.387096774193544
1696.0621268178322,-64.51612903225806
1697.0621634492106,-74.19354838709677
1698.062200080589,-67.74193548387096
1699.0622367119674,-41.935483870967744
1700.0622733433459,-9.677419354838708
1701.0623099747245,16.129032258064516
1702.062346606103,12.903225806451612
1703.0623832374813,12.903225806451612
1704.0624198688597,12.903225806451612
1705.062456500238,3.225806451612903
1706.0624931316165,3.225806451612903
1707.062529762995,-9.677419354838708
1708.0625663943736,-35.483870967741936
1709.062603025752,-58.06451612903226
1710.0626396571304,-83.87096774193549
1711.0626762885088,-103.2258064516129
1712.0627129198872,-103.2258064516129
1713.0627495512656,-96.77419354838709
1714.062786182644,-103.2258064516129
1715.0628228140224,-109.6774193548387
1716.062859445401,-96.77419354838709
1717.0628960767795,-74.19354838709677
1718.0629327081579,-48.387096774193544
1719.0629693395363,-41.935483870967744
1720.0630059709147,-35.483870967741936
1721.063042602293,-35.483870967741936
1722.0630792336715,-38.70967741935483
1723.0631158650501,-45.16129032258064
1724.0631524964285,-51.61290322580645
1725.063189127807,-74.19354838709677
1726.0632257591853,-87.09677419354838
1727.0632623905638,-80.64516129032258
1728.0632990219422,-67.74193548387096
1729.0633356533206,-54.83870967741935
1730.0633722846992,-45.16129032258064
1731.0634089160776,-48.387096774193544
1732.063445547456,-70.96774193548387
1733.0634821788344,-87.09677419354838
1734.0635188102128,-116.12903225806453
1735.0635554415912,-132.258064516129
1736.0635920729696,-119.35483870967742
1737.0636287043483,-99.99999999999999
1738.0636653357267,-67.74193548387096
1739.063701967105,-35.483870967741936
1740.0637385984835,-3.225806451612903
1741.063775229862,19.354838709677416
1742.0638118612403,9.677419354838708
1743.0638484926187,0.0
1744.0638851239974,-6.451612903225806
1745.0639217553758,-12.903225806451612
1746.0639583867542,-12.903225806451612
1747.0639950181326,-12.903225806451612
1748.064031649511,-22.58064516129032
1749.0640682808894,-35.483870967741936
1750.0641049122678,-45.16129032258064
1751.0641415436464,-48.387096774193544
1752.0641781750248,-48.387096774193544
1753.0642148064032,-48.387096774193544
1754.0642514377816,-51.61290322580645
1755.06428806916,-41.935483870967744
1756.0643247005385,-35.483870967741936
1757.0643613319169,-32.25806451612903
1758.0643979632955,-19.354838709677416
1759.064434594674,-9.677419354838708
1760.0644712260523,-3.225806451612903
1761.0645078574307,6.451612903225806
1762.0645444888091,3.225806451612903
1763.0645811201875,0.0
1764.064617751566,-6.451612903225806
1765.0646543829444,-9.677419354838708
1766.064691014323,0.0
1767.0647276457014,-3.225806451612903
1768.0647642770798,-25.806451612903224
1769.0648009084582,-41.935483870967744
1770.0648375398366,-51.61290322580645
1771.064874171215,-51.61290322580645
1772.0649108025934,-54.83870967741935
1773.064947433972,-58.06451612903226
1774.0649840653505,-58.06451612903226
1775.0650206967289,-64.51612903225806
1776.0650573281073,-64.51612903225806
1777.0650939594857,-67.74193548387096
1778.065130590864,-58.06451612903226
1779.0651672222425,-35.483870967741936
1780.0652038536211,-16.129032258064516
1781.0652404849995,-25.806451612903224
1782.065277116378,-38.70967741935483
1783.0653137477564,-19.354838709677416
1784.0653503791348,-6.451612903225806
1785.0653870105132,-3.225806451612903
1786.0654236418916,6.451612903225806
1787.0654602732702,9.677419354838708
1788.0654969046486,-3.225806451612903
1789.065533536027,-9.677419354838708
1790.0655701674054,-35.483870967741936
1791.0656067987838,-70.96774193548387
1792.0656434301623,-90.32258064516128
1793.0656800615407,-77.41935483870967
1794.0657166929193,-58.06451612903226
1795.0657533242977,-51.61290322580645
1796.065789955676,-45.16129032258064
1797.0658265870545,-16.129032258064516
1798.065863218433,3.225806451612903
1799.0658998498113,0.0
1800.0659364811897,0.0
1801.0659731125684,0.0
1802.0660097439468,3.225806451612903
1803.0660463753252,16.129032258064516
1804.0660830067036,19.354838709677416
1805.066119638082,3.225806451612903
1806.0661562694604,-3.225806451612903
1807.0661929008388,-6.451612903225806
1808.0662295322172,-6.451612903225806
1809.0662661635959,-22.58064516129032
1810.0663027949743,-48.387096774193544
1811.0663394263527,-58.06451612903226
1812.066376057731,-58.06451612903226
1813.0664126891095,-54.83870967741935
1814.066449320488,-64.51612903225806
1815.0664859518663,-64.51612903225806
1816.066522583245,-41.935483870967744
1817.0665592146233,-9.677419354838708
1818.0665958460017,9.677419354838708
1819.0666324773802,29.03225806451613
1820.0666691087586,48.387096774193544
1821.066705740137,45.16129032258064
1822.0667423715154,25.806451612903224
1823.066779002894,32.25806451612903
1824.0668156342724,22.58064516129032
1825.0668522656508,3.225806451612903
1826.0668888970292,-6.451612903225806
1827.0669255284076,-6.451612903225806
1828.066962159786,-6.451612903225806
1829.0669987911645,0.0
1830.067035422543,0.0
1831.0670720539215,-9.677419354838708
1832.0671086853,-19.354838709677416
1833.0671453166783,-16.129032258064516
1834.0671819480567,-6.451612903225806
1835.0672185794351,-6.451612903225806
1836.0672552108135,-12.903225806451612
1837.0672918421922,-6.451612903225806
1838.0673284735706,12.903225806451612
1839.067365104949,22.58064516129032
1840.0674017363274,9.677419354838708
1841.0674383677058,-9.677419354838708
1842.0674749990842,-41.935483870967744
1843.0675116304626,-61.29032258064516
1844.0675482618412,-54.83870967741935
1845.0675848932196,-35.483870967741936
1846.067621524598,-9.677419354838708
1847.0676581559765,19.354838709677416
1848.0676947873549,29.03225806451613
1849.0677314187333,12.903225806451612
1850.0677680501117,-22.58064516129032
1851.06780468149,-54.83870967741935
1852.0678413128687,-74.19354838709677
1853.0678779442471,-64.51612903225806
1854.0679145756255,-29.03225806451613
1855.067951207004,-22.58064516129032
1856.0679878383824,-3.225806451612903
1857.0680244697608,3.225806451612903
1858.0680611011392,-6.451612903225806
1859.0680977325178,-9.677419354838708
1860.0681343638962,-6.451612903225806
1861.0681709952746,3.225806451612903
1862.068207626653,-6.451612903225806
1863.0682442580314,-9.677419354838708
1864.0682808894098,-22.58064516129032
1865.0683175207882,-32.25806451612903
1866.0683541521669,-45.16129032258064
1867.0683907835453,-45.16129032258064
1868.0684274149237,-22.58064516129032
1869.068464046302,-12.903225806451612
1870.0685006776805,6.451612903225806
1871.068537309059,35.483870967741936
1872.0685739404373,61.29032258064516
1873.068610571816,54.83870967741935
1874.0686472031944,19.354838709677416
1875.0686838345728,-22.58064516129032
1876.0687204659512,-64.51612903225806
1877.0687570973296,-99.99999999999999
1878.068793728708,-116.12903225806453
1879.0688303600864,-109.6774193548387
1880.068866991465,-87.09677419354838
1881.0689036228434,-67.74193548387096
1882.0689402542218,-48.387096774193544
1883.0689768856003,-25.806451612903224
1884.0690135169787,-9.677419354838708
1885.069050148357,9.677419354838708
1886.0690867797355,35.483870967741936
1887.069123411114,38.70967741935483
1888.0691600424925,45.16129032258064
1889.069196673871,35.483870967741936
1890.0692333052493,35.483870967741936
1891.0692699366277,38.70967741935483
1892.0693065680061,48.387096774193544
1893.0693431993845,61.29032258064516
1894.069379830763,58.06451612903226
1895.0694164621416,61.29032258064516
1896.06945309352,58.06451612903226
1897.0694897248984,67.74193548387096
1898.0695263562768,77.41935483870967
1899.0695629876552,83.87096774193549
1900.0695996190336,96.77419354838709
1901.069636250412,103.2258064516129
1902.0696728817907,93.54838709677418
1903.069709513169,58.06451612903226
1904.0697461445475,25.806451612903224
1905.069782775926,3.225806451612903
1906.0698194073043,-16.129032258064516
1907.0698560386827,-48.387096774193544
1908.069892670061,-77.41935483870967
1909.0699293014397,-80.64516129032258
1910.0699659328181,-74.19354838709677
1911.0700025641966,-64.51612903225806
1912.070039195575,-32.25806451612903
1913.0700758269534,-3.225806451612903
1914.0701124583318,9.677419354838708
1915.0701490897102,9.677419354838708
1916.0701857210888,3.225806451612903
1917.0702223524672,12.903225806451612
1918.0702589838456,16.129032258064516
1919.070295615224,16.129032258064516
1920.0703322466024,29.03225806451613
1921.0703688779809,32.25806451612903
1922.0704055093593,9.677419354838708
1923.070442140738,-29.03225806451613
1924.0704787721163,-64.51612903225806
1925.0705154034947,-80.64516129032258
1926.0705520348731,-74.19354838709677
1927.0705886662515,-74.19354838709677
1928.07062529763,-70.96774193548387
1929.0706619290083,-45.16129032258064
1930.070698560387,-22.58064516129032
1931.0707351917654,-3.225806451612903
1932.0707718231438,16.129032258064516
1933.0708084545222,51.61290322580645
1934.0708450859006,90.32258064516128
1935.070881717279,103.2258064516129
1936.0709183486574,93.54838709677418
1937.0709549800358,67.74193548387096
1938.0709916114145,51.61290322580645
1939.0710282427929,38.70967741935483
1940.0710648741713,22.58064516129032
1941.0711015055497,9.677419354838708
1942.071138136928,-6.451612903225806
1943.0711747683065,-12.903225806451612
1944.071211399685,-32.25806451612903
1945.0712480310635,-16.129032258064516
1946.071284662442,12.903225806451612
1947.0713212938203,29.03225806451613
1948.0713579251988,35.483870967741936
1949.0713945565772,22.58064516129032
1950.0714311879556,25.806451612903224
1951.071467819334,29.03225806451613
1952.0715044507126,19.354838709677416
1953.071541082091,35.483870967741936
1954.0715777134694,38.70967741935483
1955.0716143448478,35.483870967741936
1956.0716509762262,35.483870967741936
1957.0716876076046,32.25806451612903
1958.071724238983,6.451612903225806
1959.0717608703617,-32.25806451612903
1960.07179750174,-38.70967741935483
1961.0718341331185,-12.903225806451612
1962.071870764497,3.225806451612903
1963.0719073958753,35.483870967741936
1964.0719440272537,48.387096774193544
1965.0719806586321,35.483870967741936
1966.0720172900108,6.451612903225806
1967.0720539213892,-6.451612903225806
1968.0720905527676,3.225806451612903
1969.072127184146,12.903225806451612
1970.0721638155244,22.58064516129032
1971.0722004469028,29.03225806451613
1972.0722370782812,45.16129032258064
1973.0722737096598,64.51612903225806
1974.0723103410382,58.06451612903226
1975.0723469724167,64.51612903225806
1976.072383603795,58.06451612903226
1977.0724202351735,45.16129032258064
1978.0724568665519,38.70967741935483
1979.0724934979303,35.483870967741936
1980.072530129309,32.25806451612903
1981.0725667606873,29.03225806451613
1982.0726033920657,35.483870967741936
1983.0726400234441,35.483870967741936
1984.0726766548225,25.806451612903224
1985.072713286201,22.58064516129032
1986.0727499175794,19.354838709677416
1987.0727865489578,19.354838709677416
1988.0728231803364,12.903225806451612
1989.0728598117148,12.903225806451612
1990.0728964430932,12.903225806451612
1991.0729330744716,0.0
1992.07296970585,-29.03225806451613
1993.0730063372284,-41.935483870967744
1994.0730429686068,-45.16129032258064
1995.0730795999855,-35.483870967741936
1996.0731162313639,-16.129032258064516
1997.0731528627423,-3.225806451612903
1998.0731894941207,9.677419354838708
1999.073226125499,25.806451612903224
2000.0732627568775,29.03225806451613
2001.073299388256,16.129032258064516
2002.0733360196346,12.903225806451612
2003.073372651013,16.129032258064516
2004.0734092823914,12.903225806451612
2005.0734459137698,19.354838709677416
2006.0734825451482,16.129032258064516
2007.0735191765266,9.677419354838708
2008.073555807905,6.451612903225806
2009.0735924392836,-6.451612903225806
2010.073629070662,-25.806451612903224
2011.0736657020404,-45.16129032258064
2012.0737023334189,-51.61290322580645
2013.0737389647973,-25.806451612903224
2014.0737755961757,19.354838709677416
2015.073812227554,41.935483870967744
2016.0738488589327,58.06451612903226
2017.073885490311,54.83870967741935
2018.0739221216895,70.96774193548387
2019.073958753068,74.19354838709677
2020.0739953844463,61.29032258064516
2021.0740320158247,45.16129032258064
2022.0740686472031,32.25806451612903
2023.0741052785818,16.129032258064516
2024.0741419099602,-6.451612903225806
2025.0741785413386,-22.58064516129032
2026.074215172717,-16.129032258064516
2027.0742518040954,-29.03225806451613
2028.0742884354738,-45.16129032258064
2029.0743250668522,-58.06451612903226
2030.0743616982306,-45.16129032258064
2031.0743983296093,-22.58064516129032
2032.0744349609877,-3.225806451612903
2033.074471592366,12.903225806451612
2034.0745082237445,12.903225806451612
2035.074544855123,22.58064516129032
2036.0745814865013,35.483870967741936
2037.0746181178797,38.70967741935483
2038.0746547492583,41.935483870967744
2039.0746913806368,25.806451612903224
2040.0747280120152,12.903225806451612
2041.0747646433936,0.0
2042.074801274772,-35.483870967741936
2043.0748379061504,-64.51612903225806
2044.0748745375288,-87.09677419354838
2045.0749111689074,-87.09677419354838
2046.0749478002858,-61.29032258064516
2047.0749844316642,-41.935483870967744
2048.0750210630426,-45.16129032258064
2049.075057694421,-48.387096774193544
2050.0750943257995,-16.129032258064516
2051.075130957178,6.451612903225806
2052.0751675885563,16.129032258064516
2053.0752042199347,35.483870967741936
2054.075240851313,51.61290322580645
2055.0752774826915,51.61290322580645
2056.0753141140704,38.70967741935483
2057.0753507454488,12.903225806451612
2058.075387376827,-6.451612903225806
2059.0754240082056,-16.129032258064516
2060.075460639584,-16.129032258064516
2061.0754972709624,-9.677419354838708
2062.075533902341,-19.354838709677416
2063.075570533719,-19.354838709677416
2064.0756071650976,-19.354838709677416
2065.075643796476,-12.903225806451612
2066.0756804278544,-3.225806451612903
2067.075717059233,0.0
2068.0757536906112,-16.129032258064516
2069.0757903219896,-29.03225806451613
2070.0758269533685,-41.935483870967744
2071.075863584747,-45.16129032258064
2072.0759002161253,-41.935483870967744
2073.0759368475037,-29.03225806451613
2074.075973478882,-35.483870967741936
2075.0760101102605,-51.61290322580645
2076.076046741639,-54.83870967741935
2077.0760833730174,-54.83870967741935
2078.0761200043958,-38.70967741935483
2079.076156635774,-29.03225806451613
2080.0761932671526,-9.677419354838708
2081.076229898531,3.225806451612903
2082.0762665299094,19.354838709677416
2083.076303161288,35.483870967741936
2084.0763397926667,29.03225806451613
2085.076376424045,35.483870967741936
2086.0764130554235,38.70967741935483
2087.076449686802,25.806451612903224
2088.0764863181803,12.903225806451612
2089.0765229495587,3.225806451612903
2090.076559580937,-16.129032258064516
2091.0765962123155,-51.61290322580645
2092.076632843694,-83.87096774193549
2093.0766694750723,-83.87096774193549
2094.0767061064507,-64.51612903225806
2095.076742737829,-54.83870967741935
2096.0767793692075,-51.61290322580645
2097.076816000586,-54.83870967741935
2098.0768526319644,-58.06451612903226
2099.076889263343,-54.83870967741935
2100.0769258947216,-74.19354838709677
2101.0769625261,-64.51612903225806
2102.0769991574784,-48.387096774193544
2103.077035788857,-12.903225806451612
2104.0770724202353,0.0
2105.0771090516137,-35.483870967741936
2106.077145682992,-58.06451612903226
2107.0771823143705,-70.96774193548387
2108.077218945749,-74.19354838709677
2109.0772555771273,-54.83870967741935
2110.0772922085057,-22.58064516129032
2111.077328839884,-3.225806451612903
2112.0773654712625,9.677419354838708
2113.0774021026414,6.451612903225806
2114.07743873402,-12.903225806451612
2115.077475365398,-32.25806451612903
2116.0775119967766,-19.354838709677416
2117.077548628155,0.0
2118.0775852595334,-3.225806451612903
2119.077621890912,-16.129032258064516
2120.07765852229,-12.903225806451612
2121.0776951536686,-9.677419354838708
2122.077731785047,-9.677419354838708
2123.0777684164254,-9.677419354838708
2124.077805047804,-6.451612903225806
2125.0778416791823,16.129032258064516
2126.0778783105607,35.483870967741936
2127.0779149419395,38.70967741935483
2128.077951573318,29.03225806451613
2129.0779882046963,16.129032258064516
2130.0780248360747,3.225806451612903
2131.078061467453,0.0
2132.0780980988316,6.451612903225806
2133.07813473021,29.03225806451613
2134.0781713615884,41.935483870967744
2135.078207992967,45.16129032258064
2136.078244624345,38.70967741935483
2137.0782812557236,25.806451612903224
2138.078317887102,16.129032258064516
2139.0783545184804,-9.677419354838708
2140.078391149859,-29.03225806451613
2141.078427781237,-41.935483870967744
2142.078464412616,-54.83870967741935
2143.0785010439945,-51.61290322580645
2144.078537675373,-35.483870967741936
2145.0785743067513,-25.806451612903224
2146.0786109381297,-12.903225806451612
2147.078647569508,-16.129032258064516
2148.0786842008865,-12.903225806451612
2149.078720832265,0.0
2150.0787574636433,16.129032258064516
2151.0787940950217,25.806451612903224
2152.0788307264,29.03225806451613
2153.0788673577786,48.387096774193544
2154.078903989157,83.87096774193549
2155.0789406205354,87.09677419354838
2156.0789772519142,87.09677419354838
2157.0790138832926,80.64516129032258
2158.079050514671,51.61290322580645
2159.0790871460495,22.58064516129032
2160.079123777428,-6.451612903225806
2161.0791604088063,-22.58064516129032
2162.0791970401847,-29.03225806451613
2163.079233671563,-19.354838709677416
2164.0792703029415,-25.806451612903224
2165.07930693432,-29.03225806451613
2166.0793435656983,-25.806451612903224
2167.0793801970767,-9.677419354838708
2168.079416828455,12.903225806451612
2169.0794534598335,19.354838709677416
2170.0794900912124,29.03225806451613
2171.079526722591,32.25806451612903
2172.079563353969,9.677419354838708
2173.0795999853476,-6.451612903225806
2174.079636616726,-16.129032258064516
2175.0796732481044,-25.806451612903224
2176.079709879483,-25.806451612903224
2177.0797465108612,-19.354838709677416
2178.0797831422396,-9.677419354838708
2179.079819773618,-9.677419354838708
2180.0798564049965,-12.903225806451612
2181.079893036375,0.0
2182.0799296677533,22.58064516129032
2183.0799662991317,58.06451612903226
2184.08000293051,93.54838709677418
2185.080039561889,99.99999999999999
2186.0800761932674,80.64516129032258
2187.0801128246458,70.96774193548387
2188.080149456024,77.41935483870967
2189.0801860874026,64.51612903225806
2190.080222718781,16.129032258064516
2191.0802593501594,-25.806451612903224
2192.080295981538,-64.51612903225806
2193.080332612916,-61.29032258064516
2194.0803692442946,-22.58064516129032
2195.080405875673,19.354838709677416
2196.0804425070514,61.29032258064516
2197.08047913843,99.99999999999999
2198.0805157698082,132.258064516129
2199.080552401187,135.48387096774192
2200.0805890325655,132.258064516129
2201.080625663944,116.12903225806453
2202.0806622953223,80.64516129032258
2203.0806989267007,48.387096774193544
2204.080735558079,22.58064516129032
2205.0807721894575,6.451612903225806
2206.080808820836,-29.03225806451613
2207.0808454522144,-70.96774193548387
2208.0808820835928,-109.6774193548387
2209.080918714971,-116.12903225806453
2210.0809553463496,-103.2258064516129
2211.080991977728,-77.41935483870967
2212.0810286091064,-61.29032258064516
2213.0810652404853,-41.935483870967744
2214.0811018718637,-12.903225806451612
2215.081138503242,6.451612903225806
2216.0811751346205,19.354838709677416
2217.081211765999,41.935483870967744
2218.0812483973773,51.61290322580645
2219.0812850287557,38.70967741935483
2220.081321660134,41.935483870967744
2221.0813582915125,64.51612903225806
2222.081394922891,61.29032258064516
2223.0814315542693,54.83870967741935
2224.0814681856477,61.29032258064516
2225.081504817026,54.83870967741935
2226.0815414484046,45.16129032258064
2227.081578079783,32.25806451612903
2228.081614711162,12.903225806451612
2229.08165134254,6.451612903225806
2230.0816879739186,12.903225806451612
2231.081724605297,16.129032258064516
2232.0817612366754,32.25806451612903
2233.081797868054,51.61290322580645
2234.0818344994323,61.29032258064516
2235.0818711308107,41.935483870967744
2236.081907762189,38.70967741935483
2237.0819443935675,19.354838709677416
2238.081981024946,16.129032258064516
2239.0820176563243,25.806451612903224
2240.0820542877027,25.806451612903224
2241.082090919081,16.129032258064516
2242.08212755046,0.0
2243.0821641818384,-12.903225806451612
2244.082200813217,-29.03225806451613
2245.082237444595,-32.25806451612903
2246.0822740759736,-22.58064516129032
2247.082310707352,-12.903225806451612
2248.0823473387304,-6.451612903225806
2249.082383970109,-3.225806451612903
2250.0824206014872,-6.451612903225806
2251.0824572328656,-12.903225806451612
2252.082493864244,-9.677419354838708
2253.0825304956224,16.129032258064516
2254.082567127001,22.58064516129032
2255.0826037583793,16.129032258064516
2256.082640389758,9.677419354838708
2257.0826770211365,9.677419354838708
2258.082713652515,22.58064516129032
2259.0827502838933,25.806451612903224
2260.0827869152718,29.03225806451613
2261.08282354665,70.96774193548387
2262.0828601780286,135.48387096774192
2263.082896809407,209.6774193548387
2264.0829334407854,264.516129032258
2265.082970072164,306.4516129032258
2266.083006703542,325.8064516129032
2267.0830433349206,325.8064516129032
2268.083079966299,345.1612903225806
2269.0831165976774,370.96774193548384
2270.0831532290563,399.99999999999994
2271.0831898604347,435.4838709677419
2272.083226491813,458.0645161290322
2273.0832631231915,461.2903225806451
2274.08329975457,448.3870967741935
2275.0833363859483,422.5806451612903
2276.0833730173267,406.4516129032258
2277.083409648705,393.5483870967742
2278.0834462800835,377.41935483870964
2279.083482911462,348.38709677419354
2280.0835195428403,325.8064516129032
2281.0835561742188,312.9032258064516
2282.083592805597,287.0967741935484
2283.0836294369756,287.0967741935484
2284.083666068354,254.83870967741933
2285.083702699733,193.54838709677418
2286.0837393311112,145.16129032258067
2287.0837759624897,93.54838709677418
2288.083812593868,35.483870967741936
2289.0838492252465,0.0
2290.083885856625,-41.935483870967744
2291.0839224880033,-103.2258064516129
2292.0839591193817,-170.96774193548387
2293.08399575076,-219.3548387096774
2294.0840323821385,-254.83870967741933
2295.084069013517,-293.54838709677415
2296.0841056448953,-319.3548387096774
2297.0841422762737,-319.3548387096774
2298.084178907652,-306.4516129032258
2299.084215539031,-280.6451612903225
2300.0842521704094,-238.70967741935485
2301.084288801788,-216.12903225806448
2302.084325433166,-187.09677419354836
2303.0843620645446,-170.96774193548387
2304.084398695923,-167.74193548387098
2305.0844353273014,-148.38709677419354
2306.08447195868,-135.48387096774192
2307.0845085900582,-116.12903225806453
2308.0845452214367,-99.99999999999999
2309.084581852815,-90.32258064516128
2310.0846184841935,-87.09677419354838
2311.084655115572,-87.09677419354838
2312.0846917469503,-93.54838709677418
2313.084728378329,-90.32258064516128
2314.0847650097076,-90.32258064516128
2315.084801641086,-90.32258064516128
2316.0848382724644,-93.54838709677418
2317.084874903843,-96.77419354838709
2318.084911535221,-99.99999999999999
2319.0849481665996,-109.6774193548387
2320.084984797978,-112.9032258064516
2321.0850214293564,-106.4516129032258
2322.085058060735,-99.99999999999999
2323.085094692113,-99.99999999999999
2324.0851313234916,-87.09677419354838
2325.08516795487,-74.19354838709677
2326.0852045862484,-61.29032258064516
2327.085241217627,-51.61290322580645
2328.0852778490057,-48.387096774193544
2329.085314480384,-54.83870967741935
2330.0853511117625,-64.51612903225806
2331.085387743141,-67.74193548387096
2332.0854243745193,-51.61290322580645
2333.0854610058977,-32.25806451612903
2334.085497637276,-29.03225806451613
2335.0855342686546,-38.70967741935483
2336.085570900033,-67.74193548387096
2337.0856075314114,-77.41935483870967
2338.08564416279,-70.96774193548387
2339.085680794168,-51.61290322580645
2340.0857174255466,-35.483870967741936
2341.085754056925,-29.03225806451613
2342.085790688304,-32.25806451612903
2343.0858273196823,-61.29032258064516
2344.0858639510607,-99.99999999999999
2345.085900582439,-119.35483870967742
2346.0859372138175,-103.2258064516129
2347.085973845196,-87.09677419354838
2348.0860104765743,-74.19354838709677
2349.0860471079527,-64.51612903225806
2350.086083739331,-48.387096774193544
2351.0861203707095,-41.935483870967744
2352.086157002088,-35.483870967741936
2353.0861936334663,-25.806451612903224
2354.0862302648447,-19.354838709677416
2355.086266896223,-16.129032258064516
2356.086303527602,-16.129032258064516
2357.0863401589804,-16.129032258064516
2358.086376790359,-22.58064516129032
2359.0864134217372,-32.25806451612903
2360.0864500531156,-32.25806451612903
2361.086486684494,-35.483870967741936
2362.0865233158725,-35.483870967741936
2363.086559947251,-35.483870967741936
2364.0865965786293,-41.935483870967744
2365.0866332100077,-32.25806451612903
2366.086669841386,-16.129032258064516
2367.0867064727645,-9.677419354838708
2368.086743104143,-9.677419354838708
2369.0867797355213,-16.129032258064516
2370.0868163668997,-12.903225806451612
2371.0868529982786,-9.677419354838708
2372.086889629657,-9.677419354838708
2373.0869262610354,-12.903225806451612
2374.086962892414,-25.806451612903224
2375.086999523792,-48.387096774193544
2376.0870361551706,-70.96774193548387
2377.087072786549,-64.51612903225806
2378.0871094179274,-54.83870967741935
2379.087146049306,-51.61290322580645
2380.0871826806842,-45.16129032258064
2381.0872193120626,-54.83870967741935
2382.087255943441,-58.06451612903226
2383.0872925748195,-54.83870967741935
2384.087329206198,-54.83870967741935
2385.0873658375767,-41.935483870967744
2386.087402468955,-38.70967741935483
2387.0874391003335,-22.58064516129032
2388.087475731712,-9.677419354838708
2389.0875123630904,-6.451612903225806
2390.0875489944688,-6.451612903225806
2391.087585625847,-19.354838709677416
2392.0876222572256,-32.25806451612903
2393.087658888604,-51.61290322580645
2394.0876955199824,-64.51612903225806
2395.087732151361,-51.61290322580645
2396.087768782739,-45.16129032258064
2397.0878054141176,-41.935483870967744
2398.087842045496,-32.25806451612903
2399.087878676875,-22.58064516129032
2400.0879153082533,-16.129032258064516
2401.0879519396317,-25.806451612903224
2402.08798857101,-25.806451612903224
2403.0880252023885,-9.677419354838708
2404.088061833767,9.677419354838708
2405.0880984651453,12.903225806451612
2406.0881350965237,-6.451612903225806
2407.088171727902,-22.58064516129032
2408.0882083592805,-25.806451612903224
2409.088244990659,-54.83870967741935
2410.0882816220374,-83.87096774193549
2411.0883182534158,-87.09677419354838
2412.088354884794,-83.87096774193549
2413.0883915161726,-80.64516129032258
2414.0884281475514,-64.51612903225806
2415.08846477893,-35.483870967741936
2416.0885014103083,-22.58064516129032
2417.0885380416867,-12.903225806451612
2418.088574673065,9.677419354838708
2419.0886113044435,19.354838709677416
2420.088647935822,29.03225806451613
2421.0886845672003,22.58064516129032
2422.0887211985787,0.0
2423.088757829957,-19.354838709677416
2424.0887944613355,-16.129032258064516
2425.088831092714,-32.25806451612903
2426.0888677240923,-70.96774193548387
2427.0889043554707,-90.32258064516128
2428.0889409868496,-61.29032258064516
2429.088977618228,-22.58064516129032
2430.0890142496064,6.451612903225806
2431.089050880985,0.0
2432.089087512363,-6.451612903225806
2433.0891241437416,3.225806451612903
2434.08916077512,19.354838709677416
2435.0891974064984,38.70967741935483
2436.089234037877,54.83870967741935
2437.0892706692553,61.29032258064516
2438.0893073006337,64.51612903225806
2439.089343932012,48.387096774193544
2440.0893805633905,32.25806451612903
2441.089417194769,25.806451612903224
2442.0894538261477,9.677419354838708
2443.089490457526,9.677419354838708
2444.0895270889046,19.354838709677416
2445.089563720283,22.58064516129032
2446.0896003516614,16.129032258064516
2447.08963698304,3.225806451612903
2448.089673614418,12.903225806451612
2449.0897102457966,6.451612903225806
2450.089746877175,-3.225806451612903
2451.0897835085534,-6.451612903225806
2452.089820139932,12.903225806451612
2453.08985677131,51.61290322580645
2454.0898934026886,77.41935483870967
2455.089930034067,67.74193548387096
2456.0899666654454,61.29032258064516
2457.0900032968243,64.51612903225806
2458.0900399282027,70.96774193548387
2459.090076559581,58.06451612903226
2460.0901131909595,32.25806451612903
2461.090149822338,25.806451612903224
2462.0901864537163,19.354838709677416
2463.0902230850947,19.354838709677416
2464.090259716473,12.903225806451612
2465.0902963478516,3.225806451612903
2466.09033297923,6.451612903225806
2467.0903696106084,3.225806451612903
2468.090406241987,0.0
2469.090442873365,3.225806451612903
2470.0904795047436,12.903225806451612
2471.0905161361225,29.03225806451613
2472.090552767501,35.483870967741936
2473.0905893988793,38.70967741935483
2474.0906260302577,35.483870967741936
2475.090662661636,19.354838709677416
2476.0906992930145,16.129032258064516
2477.090735924393,29.03225806451613
2478.0907725557713,32.25806451612903
2479.0908091871497,25.806451612903224
2480.090845818528,16.129032258064516
2481.0908824499065,9.677419354838708
2482.090919081285,-9.677419354838708
2483.0909557126633,-16.129032258064516
2484.0909923440418,-3.225806451612903
2485.0910289754206,6.451612903225806
2486.091065606799,22.58064516129032
2487.0911022381774,22.58064516129032
2488.091138869556,16.129032258064516
2489.0911755009342,16.129032258064516
2490.0912121323126,29.03225806451613
2491.091248763691,29.03225806451613
2492.0912853950695,29.03225806451613
2493.091322026448,22.58064516129032
2494.0913586578263,22.58064516129032
2495.0913952892047,29.03225806451613
2496.091431920583,38.70967741935483
2497.0914685519615,41.935483870967744
2498.09150518334,25.806451612903224
2499.0915418147183,9.677419354838708
2500.091578446097,25.806451612903224
2501.0916150774756,48.387096774193544
2502.091651708854,67.74193548387096
2503.0916883402324,77.41935483870967
2504.091724971611,64.51612903225806
2505.091761602989,45.16129032258064
2506.0917982343676,35.483870967741936
2507.091834865746,32.25806451612903
2508.0918714971244,25.806451612903224
2509.091908128503,29.03225806451613
2510.0919447598812,22.58064516129032
2511.0919813912597,19.354838709677416
2512.092018022638,16.129032258064516
2513.0920546540165,16.129032258064516
2514.0920912853953,12.903225806451612
2515.0921279167737,16.129032258064516
2516.092164548152,35.483870967741936
2517.0922011795305,35.483870967741936
2518.092237810909,9.677419354838708
2519.0922744422874,-25.806451612903224
2520.0923110736658,-35.483870967741936
2521.092347705044,-32.25806451612903
2522.0923843364226,-35.483870967741936
2523.092420967801,-51.61290322580645
2524.0924575991794,-77.41935483870967
2525.092494230558,-80.64516129032258
2526.092530861936,-64.51612903225806
2527.0925674933146,-51.61290322580645
2528.0926041246935,-29.03225806451613
2529.092640756072,-3.225806451612903
2530.0926773874503,6.451612903225806
2531.0927140188287,0.0
2532.092750650207,3.225806451612903
2533.0927872815855,0.0
2534.092823912964,-6.451612903225806
2535.0928605443423,-12.903225806451612
2536.0928971757207,-19.354838709677416
2537.092933807099,-29.03225806451613
2538.0929704384776,-32.25806451612903
2539.093007069856,-35.483870967741936
2540.0930437012344,-29.03225806451613
2541.0930803326128,-35.483870967741936
2542.093116963991,-61.29032258064516
2543.09315359537,-93.54838709677418
2544.0931902267484,-116.12903225806453
2545.093226858127,-116.12903225806453
2546.0932634895053,-99.99999999999999
2547.0933001208837,-67.74193548387096
2548.093336752262,-38.70967741935483
2549.0933733836405,-35.483870967741936
2550.093410015019,-38.70967741935483
2551.0934466463973,-45.16129032258064
2552.0934832777757,-70.96774193548387
2553.093519909154,-96.77419354838709
2554.0935565405325,-138.70967741935482
2555.093593171911,-151.61290322580646
2556.0936298032893,-141.93548387096774
2557.093666434668,-132.258064516129
2558.0937030660466,-135.48387096774192
2559.093739697425,-154.83870967741933
2560.0937763288034,-167.74193548387098
2561.093812960182,-161.29032258064515
2562.0938495915602,-161.29032258064515
2563.0938862229386,-154.83870967741933
2564.093922854317,-151.61290322580646
2565.0939594856954,-141.93548387096774
2566.093996117074,-135.48387096774192
2567.0940327484523,-116.12903225806453
2568.0940693798307,-96.77419354838709
2569.094106011209,-83.87096774193549
2570.0941426425875,-77.41935483870967
2571.0941792739663,-87.09677419354838
2572.0942159053448,-83.87096774193549
2573.094252536723,-90.32258064516128
2574.0942891681016,-96.77419354838709
2575.09432579948,-93.54838709677418
2576.0943624308584,-112.9032258064516
2577.094399062237,-138.70967741935482
2578.094435693615,-158.06451612903226
2579.0944723249936,-161.29032258064515
2580.094508956372,-164.51612903225805
2581.0945455877504,-170.96774193548387
2582.094582219129,-164.51612903225805
2583.0946188505072,-138.70967741935482
2584.0946554818856,-116.12903225806453
2585.094692113264,-106.4516129032258
2586.094728744643,-93.54838709677418
2587.0947653760213,-83.87096774193549
2588.0948020073997,-80.64516129032258
2589.094838638778,-87.09677419354838
2590.0948752701565,-103.2258064516129
2591.094911901535,-116.12903225806453
2592.0949485329133,-116.12903225806453
2593.0949851642918,-112.9032258064516
2594.09502179567,-129.03225806451613
2595.0950584270486,-132.258064516129
2596.095095058427,-122.58064516129032
2597.0951316898054,-112.9032258064516
2598.095168321184,-109.6774193548387
2599.095204952562,-116.12903225806453
2600.095241583941,-122.58064516129032
2601.0952782153195,-119.35483870967742
2602.095314846698,-106.4516129032258
2603.0953514780763,-103.2258064516129
2604.0953881094547,-106.4516129032258
2605.095424740833,-83.87096774193549
2606.0954613722115,-77.41935483870967
2607.09549800359,-83.87096774193549
2608.0955346349683,-96.77419354838709
2609.0955712663467,-129.03225806451613
2610.095607897725,-161.29032258064515
2611.0956445291035,-183.8709677419355
2612.095681160482,-203.2258064516129
2613.0957177918604,-203.2258064516129
2614.095754423239,-174.19354838709677
2615.0957910546176,-129.03225806451613
2616.095827685996,-103.2258064516129
2617.0958643173744,-96.77419354838709
2618.095900948753,-70.96774193548387
2619.0959375801312,-64.51612903225806
2620.0959742115097,-67.74193548387096
2621.096010842888,-64.51612903225806
2622.0960474742665,-45.16129032258064
2623.096084105645,-35.483870967741936
2624.0961207370233,-48.387096774193544
2625.0961573684017,-64.51612903225806
2626.09619399978,-48.387096774193544
2627.0962306311585,-45.16129032258064
2628.096267262537,-38.70967741935483
2629.096303893916,-41.935483870967744
2630.096340525294,-48.387096774193544
2631.0963771566726,-32.25806451612903
2632.096413788051,-35.483870967741936
2633.0964504194294,-29.03225806451613
2634.096487050808,-32.25806451612903
2635.096523682186,-35.483870967741936
2636.0965603135646,-38.70967741935483
2637.096596944943,-38.70967741935483
2638.0966335763214,-25.806451612903224
2639.0966702077,-29.03225806451613
2640.0967068390783,-38.70967741935483
2641.0967434704567,-61.29032258064516
2642.096780101835,-87.09677419354838
2643.096816733214,-122.58064516129032
2644.0968533645923,-154.83870967741933
2645.0968899959707,-151.61290322580646
2646.096926627349,-116.12903225806453
2647.0969632587276,-99.99999999999999
2648.096999890106,-67.74193548387096
2649.0970365214844,-38.70967741935483
2650.097073152863,-25.806451612903224
2651.097109784241,-12.903225806451612
2652.0971464156196,-16.129032258064516
2653.097183046998,-25.806451612903224
2654.0972196783764,-22.58064516129032
2655.097256309755,-35.483870967741936
2656.097292941133,-38.70967741935483
2657.097329572512,-51.61290322580645
2658.0973662038905,-70.96774193548387
2659.097402835269,-80.64516129032258
2660.0974394666473,-77.41935483870967
2661.0974760980257,-80.64516129032258
2662.097512729404,-87.09677419354838
2663.0975493607825,-83.87096774193549
2664.097585992161,-83.87096774193549
2665.0976226235393,-87.09677419354838
2666.0976592549177,-87.09677419354838
2667.097695886296,-90.32258064516128
2668.0977325176746,-77.41935483870967
2669.097769149053,-51.61290322580645
2670.0978057804314,-48.387096774193544
2671.0978424118102,-54.83870967741935
2672.0978790431886,-64.51612903225806
2673.097915674567,-74.19354838709677
2674.0979523059455,-83.87096774193549
2675.097988937324,-80.64516129032258
2676.0980255687023,-77.41935483870967
2677.0980622000807,-80.64516129032258
2678.098098831459,-74.19354838709677
2679.0981354628375,-51.61290322580645
2680.098172094216,-25.806451612903224
2681.0982087255943,-25.806451612903224
2682.0982453569727,-22.58064516129032
2683.098281988351,-22.58064516129032
2684.0983186197295,-25.806451612903224
2685.098355251108,-25.806451612903224
2686.098391882487,-38.70967741935483
2687.098428513865,-38.70967741935483
2688.0984651452436,-16.129032258064516
2689.098501776622,-9.677419354838708
2690.0985384080004,-6.451612903225806
2691.098575039379,-22.58064516129032
2692.0986116707572,-41.935483870967744
2693.0986483021356,-48.387096774193544
2694.098684933514,-58.06451612903226
2695.0987215648925,-67.74193548387096
2696.098758196271,-61.29032258064516
2697.0987948276493,-41.935483870967744
2698.0988314590277,-25.806451612903224
2699.098868090406,-29.03225806451613
2700.098904721785,-25.806451612903224
2701.0989413531634,-29.03225806451613
2702.0989779845418,-38.70967741935483
2703.09901461592,-19.354838709677416
2704.0990512472986,9.677419354838708
2705.099087878677,16.129032258064516
2706.0991245100554,16.129032258064516
2707.099161141434,9.677419354838708
2708.099197772812,3.225806451612903
2709.0992344041906,-12.903225806451612
2710.099271035569,-38.70967741935483
2711.0993076669474,-70.96774193548387
2712.099344298326,-90.32258064516128
2713.0993809297042,-83.87096774193549
2714.099417561083,-58.06451612903226
2715.0994541924615,-38.70967741935483
2716.09949082384,-29.03225806451613
2717.0995274552183,-19.354838709677416
2718.0995640865967,-16.129032258064516
2719.099600717975,-19.354838709677416
2720.0996373493535,-9.677419354838708
2721.099673980732,12.903225806451612
2722.0997106121104,22.58064516129032
2723.0997472434888,19.354838709677416
2724.099783874867,3.225806451612903
2725.0998205062456,0.0
2726.099857137624,9.677419354838708
2727.0998937690024,19.354838709677416
2728.099930400381,19.354838709677416
2729.0999670317597,0.0
2730.100003663138,-3.225806451612903
2731.1000402945165,32.25806451612903
2732.100076925895,67.74193548387096
2733.1001135572733,67.74193548387096
2734.1001501886517,38.70967741935483
2735.10018682003,22.58064516129032
2736.1002234514085,25.806451612903224
2737.100260082787,35.483870967741936
2738.1002967141653,45.16129032258064
2739.1003333455437,58.06451612903226
2740.100369976922,54.83870967741935
2741.1004066083005,32.25806451612903
2742.100443239679,16.129032258064516
2743.100479871058,16.129032258064516
2744.100516502436,6.451612903225806
2745.1005531338146,-25.806451612903224
2746.100589765193,-61.29032258064516
2747.1006263965714,-58.06451612903226
2748.10066302795,-32.25806451612903
2749.1006996593283,-9.677419354838708
2750.1007362907067,16.129032258064516
2751.100772922085,25.806451612903224
2752.1008095534635,16.129032258064516
2753.100846184842,9.677419354838708
2754.1008828162203,29.03225806451613
2755.1009194475987,51.61290322580645
2756.100956078977,41.935483870967744
2757.100992710356,16.129032258064516
2758.1010293417344,-9.677419354838708
2759.101065973113,-22.58064516129032
2760.101102604491,-41.935483870967744
2761.1011392358696,-48.387096774193544
2762.101175867248,-51.61290322580645
2763.1012124986264,-51.61290322580645
2764.101249130005,-51.61290322580645
2765.101285761383,-38.70967741935483
2766.1013223927616,-25.806451612903224
2767.10135902414,-9.677419354838708
2768.1013956555184,9.677419354838708
2769.101432286897,16.129032258064516
2770.1014689182753,12.903225806451612
2771.1015055496537,12.903225806451612
2772.1015421810325,19.354838709677416
2773.101578812411,29.03225806451613
2774.1016154437893,25.806451612903224
2775.1016520751677,9.677419354838708
2776.101688706546,-3.225806451612903
2777.1017253379246,0.0
2778.101761969303,0.0
2779.1017986006814,-3.225806451612903
2780.10183523206,0.0
2781.101871863438,0.0
2782.1019084948166,0.0
2783.101945126195,19.354838709677416
2784.1019817575734,45.16129032258064
2785.102018388952,54.83870967741935
2786.1020550203307,54.83870967741935
2787.102091651709,45.16129032258064
2788.1021282830875,22.58064516129032
2789.102164914466,3.225806451612903
2790.1022015458443,-16.129032258064516
2791.1022381772227,-25.806451612903224
2792.102274808601,-32.25806451612903
2793.1023114399795,-29.03225806451613
2794.102348071358,-29.03225806451613
2795.1023847027363,-32.25806451612903
2796.1024213341148,-58.06451612903226
2797.102457965493,-83.87096774193549
2798.1024945968716,-80.64516129032258
2799.10253122825,-48.387096774193544
2800.102567859629,-6.451612903225806
2801.1026044910072,-6.451612903225806
2802.1026411223856,-3.225806451612903
2803.102677753764,6.451612903225806
2804.1027143851425,-3.225806451612903
2805.102751016521,-22.58064516129032
2806.1027876478993,-22.58064516129032
2807.1028242792777,-12.903225806451612
2808.102860910656,-3.225806451612903
2809.1028975420345,3.225806451612903
2810.102934173413,12.903225806451612
2811.1029708047913,12.903225806451612
2812.1030074361697,6.451612903225806
2813.103044067548,12.903225806451612
2814.1030806989265,19.354838709677416
2815.1031173303054,12.903225806451612
2816.103153961684,0.0
2817.103190593062,-3.225806451612903
2818.1032272244406,0.0
2819.103263855819,16.129032258064516
2820.1033004871974,25.806451612903224
2821.103337118576,32.25806451612903
2822.1033737499542,22.58064516129032
2823.1034103813327,19.354838709677416
2824.103447012711,9.677419354838708
2825.1034836440895,-9.677419354838708
2826.103520275468,-19.354838709677416
2827.1035569068463,-32.25806451612903
2828.1035935382247,-41.935483870967744
2829.1036301696035,-32.25806451612903
2830.103666800982,-19.354838709677416
2831.1037034323604,-12.903225806451612
2832.1037400637388,9.677419354838708
2833.103776695117,22.58064516129032
2834.1038133264956,19.354838709677416
2835.103849957874,12.903225806451612
2836.1038865892524,9.677419354838708
2837.103923220631,-9.677419354838708
2838.103959852009,-12.903225806451612
2839.1039964833876,-19.354838709677416
2840.104033114766,-25.806451612903224
2841.1040697461444,-35.483870967741936
2842.104106377523,-48.387096774193544
2843.1041430089017,-51.61290322580645
2844.10417964028,-64.51612903225806
2845.1042162716585,-80.64516129032258
2846.104252903037,-80.64516129032258
2847.1042895344153,-64.51612903225806
2848.1043261657937,-41.935483870967744
2849.104362797172,-16.129032258064516
2850.1043994285506,-16.129032258064516
2851.104436059929,-29.03225806451613
2852.1044726913074,-32.25806451612903
2853.1045093226858,-29.03225806451613
2854.104545954064,-16.129032258064516
2855.1045825854426,-3.225806451612903
2856.104619216821,12.903225806451612
2857.1046558481994,25.806451612903224
2858.1046924795783,25.806451612903224
2859.1047291109567,12.903225806451612
2860.104765742335,-19.354838709677416
2861.1048023737135,-9.677419354838708
2862.104839005092,9.677419354838708
2863.1048756364703,12.903225806451612
2864.1049122678487,-3.225806451612903
2865.104948899227,-16.129032258064516
2866.1049855306055,-25.806451612903224
2867.105022161984,-25.806451612903224
2868.1050587933623,-58.06451612903226
2869.1050954247407,-83.87096774193549
2870.105132056119,-83.87096774193549
2871.1051686874976,-64.51612903225806
2872.1052053188764,-45.16129032258064
2873.105241950255,-38.70967741935483
2874.1052785816332,-35.483870967741936
2875.1053152130116,-16.129032258064516
2876.10535184439,-9.677419354838708
2877.1053884757685,-16.129032258064516
2878.105425107147,-22.58064516129032
2879.1054617385253,-35.483870967741936
2880.1054983699037,-45.16129032258064
2881.105535001282,-51.61290322580645
2882.1055716326605,-38.70967741935483
2883.105608264039,-35.483870967741936
2884.1056448954173,-58.06451612903226
2885.1056815267957,-51.61290322580645
2886.1057181581746,-32.25806451612903
2887.105754789553,-22.58064516129032
2888.1057914209314,-6.451612903225806
2889.10582805231,0.0
2890.105864683688,-9.677419354838708
2891.1059013150666,-22.58064516129032
2892.105937946445,-32.25806451612903
2893.1059745778234,-25.806451612903224
2894.106011209202,-35.483870967741936
2895.1060478405802,-38.70967741935483
2896.1060844719586,-41.935483870967744
2897.106121103337,-45.16129032258064
2898.1061577347155,-54.83870967741935
2899.106194366094,-58.06451612903226
2900.1062309974723,-64.51612903225806
2901.106267628851,-58.06451612903226
2902.1063042602295,-25.806451612903224
2903.106340891608,-3.225806451612903
2904.1063775229863,-16.129032258064516
2905.1064141543648,-32.25806451612903
2906.106450785743,-38.70967741935483
2907.1064874171216,-54.83870967741935
2908.1065240485,-99.99999999999999
2909.1065606798784,-122.58064516129032
2910.106597311257,-112.9032258064516
2911.106633942635,-99.99999999999999
2912.1066705740136,-87.09677419354838
2913.106707205392,-61.29032258064516
2914.1067438367704,-64.51612903225806
2915.1067804681493,-58.06451612903226
2916.1068170995277,-25.806451612903224
2917.106853730906,9.677419354838708
2918.1068903622845,45.16129032258064
2919.106926993663,61.29032258064516
2920.1069636250413,54.83870967741935
2921.1070002564197,38.70967741935483
2922.107036887798,22.58064516129032
2923.1070735191765,3.225806451612903
2924.107110150555,-16.129032258064516
2925.1071467819334,-38.70967741935483
2926.1071834133118,-32.25806451612903
2927.10722004469,-25.806451612903224
2928.1072566760686,-29.03225806451613
2929.1072933074474,-22.58064516129032
2930.107329938826,-9.677419354838708
2931.1073665702042,6.451612903225806
2932.1074032015827,-3.225806451612903
2933.107439832961,-12.903225806451612
2934.1074764643395,-12.903225806451612
2935.107513095718,-12.903225806451612
2936.1075497270963,-9.677419354838708
2937.1075863584747,-16.129032258064516
2938.107622989853,-25.806451612903224
2939.1076596212315,-19.354838709677416
2940.10769625261,-25.806451612903224
2941.1077328839883,-48.387096774193544
2942.1077695153667,-64.51612903225806
2943.107806146745,-58.06451612903226
2944.107842778124,-51.61290322580645
2945.1078794095024,-38.70967741935483
2946.107916040881,-9.677419354838708
2947.107952672259,16.129032258064516
2948.1079893036376,25.806451612903224
2949.108025935016,25.806451612903224
2950.1080625663944,16.129032258064516
2951.108099197773,3.225806451612903
2952.1081358291513,-22.58064516129032
2953.1081724605297,-35.483870967741936
2954.108209091908,-38.70967741935483
2955.1082457232865,-38.70967741935483
2956.108282354665,-41.935483870967744
2957.1083189860433,-41.935483870967744
2958.108355617422,-54.83870967741935
2959.1083922488006,-80.64516129032258
2960.108428880179,-93.54838709677418
2961.1084655115574,-93.54838709677418
2962.108502142936,-96.77419354838709
2963.108538774314,-93.54838709677418
2964.1085754056926,-67.74193548387096
2965.108612037071,-22.58064516129032
2966.1086486684494,-25.806451612903224
2967.108685299828,-54.83870967741935
2968.108721931206,-74.19354838709677
2969.1087585625846,-90.32258064516128
2970.108795193963,-77.41935483870967
2971.1088318253414,-48.387096774193544
2972.1088684567203,-35.483870967741936
2973.1089050880987,-51.61290322580645
2974.108941719477,-64.51612903225806
2975.1089783508555,-58.06451612903226
2976.109014982234,-51.61290322580645
2977.1090516136123,-41.935483870967744
2978.1090882449907,-16.129032258064516
2979.109124876369,0.0
2980.1091615077476,16.129032258064516
2981.109198139126,29.03225806451613
2982.1092347705044,38.70967741935483
2983.109271401883,51.61290322580645
2984.109308033261,51.61290322580645
2985.1093446646396,45.16129032258064
2986.109381296018,32.25806451612903
2987.109417927397,12.903225806451612
2988.1094545587753,-3.225806451612903
2989.1094911901537,-19.354838709677416
2990.109527821532,-35.483870967741936
2991.1095644529105,-48.387096774193544
2992.109601084289,-58.06451612903226
2993.1096377156673,-48.387096774193544
2994.1096743470457,-38.70967741935483
2995.109710978424,-32.25806451612903
2996.1097476098025,-38.70967741935483
2997.109784241181,-51.61290322580645
2998.1098208725593,-38.70967741935483
2999.1098575039377,-19.354838709677416
3000.109894135316,-9.677419354838708
3001.109930766695,-16.129032258064516
3002.1099673980734,-12.903225806451612
3003.110004029452,3.225806451612903
3004.1100406608302,22.58064516129032
3005.1100772922086,38.70967741935483
3006.110113923587,48.387096774193544
3007.1101505549655,22.58064516129032
3008.110187186344,0.0
3009.1102238177223,-32.25806451612903
3010.1102604491007,-48.387096774193544
3011.110297080479,-48.387096774193544
3012.1103337118575,-64.51612903225806
3013.110370343236,-74.19354838709677
3014.1104069746143,-64.51612903225806
3015.110443605993,-35.483870967741936
3016.1104802373716,0.0
3017.11051686875,29.03225806451613
3018.1105535001284,45.16129032258064
3019.110590131507,41.935483870967744
3020.110626762885,38.70967741935483
3021.1106633942636,9.677419354838708
3022.110700025642,-6.451612903225806
3023.1107366570204,0.0
3024.110773288399,3.225806451612903
3025.1108099197772,6.451612903225806
3026.1108465511556,0.0
3027.110883182534,-3.225806451612903
3028.1109198139125,-22.58064516129032
3029.110956445291,-54.83870967741935
3030.1109930766697,-74.19354838709677
3031.111029708048,-90.32258064516128
3032.1110663394265,-106.4516129032258
3033.111102970805,-80.64516129032258
3034.1111396021834,-45.16129032258064
3035.1111762335618,-25.806451612903224
3036.11121286494,-9.677419354838708
3037.1112494963186,3.225806451612903
3038.111286127697,-25.806451612903224
3039.1113227590754,-64.51612903225806
3040.111359390454,-93.54838709677418
3041.111396021832,-129.03225806451613
3042.1114326532106,-151.61290322580646
3043.111469284589,-145.16129032258067
3044.111505915968,-132.258064516129
3045.1115425473463,-112.9032258064516
3046.1115791787247,-87.09677419354838
3047.111615810103,-51.61290322580645
3048.1116524414815,-16.129032258064516
3049.11168907286,-6.451612903225806
3050.1117257042383,6.451612903225806
3051.1117623356167,16.129032258064516
3052.111798966995,-6.451612903225806
3053.1118355983735,-25.806451612903224
3054.111872229752,-25.806451612903224
3055.1119088611304,-25.806451612903224
3056.1119454925088,-25.806451612903224
3057.111982123887,-41.935483870967744
3058.112018755266,-64.51612903225806
3059.1120553866444,-93.54838709677418
3060.112092018023,-93.54838709677418
3061.1121286494013,-74.19354838709677
3062.1121652807797,-64.51612903225806
3063.112201912158,-64.51612903225806
3064.1122385435365,-67.74193548387096
3065.112275174915,-64.51612903225806
3066.1123118062933,-58.06451612903226
3067.1123484376717,-51.61290322580645
3068.11238506905,-58.06451612903226
3069.1124217004285,-51.61290322580645
3070.112458331807,-38.70967741935483
3071.1124949631853,-32.25806451612903
3072.1125315945637,-35.483870967741936
3073.1125682259426,-35.483870967741936
3074.112604857321,-54.83870967741935
3075.1126414886994,-74.19354838709677
3076.112678120078,-74.19354838709677
3077.112714751456,-64.51612903225806
3078.1127513828346,-45.16129032258064
3079.112788014213,-35.483870967741936
3080.1128246455914,-22.58064516129032
3081.11286127697,-25.806451612903224
3082.1128979083483,-38.70967741935483
3083.1129345397267,-48.387096774193544
3084.112971171105,-25.806451612903224
3085.1130078024835,16.129032258064516
3086.113044433862,54.83870967741935
3087.1130810652407,83.87096774193549
3088.113117696619,119.35483870967742
3089.1131543279976,154.83870967741933
3090.113190959376,199.99999999999997
3091.1132275907544,232.25806451612905
3092.113264222133,235.48387096774195
3093.113300853511,232.25806451612905
3094.1133374848896,241.93548387096774
3095.113374116268,258.06451612903226
3096.1134107476464,274.19354838709677
3097.113447379025,312.9032258064516
3098.113484010403,364.51612903225805
3099.1135206417816,383.8709677419355
3100.11355727316,377.41935483870964
3101.113593904539,367.741935483871
3102.1136305359173,348.38709677419354
3103.1136671672957,348.38709677419354
3104.113703798674,351.61290322580646
3105.1137404300525,364.51612903225805
3106.113777061431,370.96774193548384
3107.1138136928093,341.93548387096774
3108.1138503241878,300.0
3109.113886955566,248.38709677419354
3110.1139235869446,199.99999999999997
3111.113960218323,154.83870967741933
3112.1139968497014,116.12903225806453
3113.11403348108,74.19354838709677
3114.114070112458,16.129032258064516
3115.114106743837,-70.96774193548387
3116.1141433752155,-148.38709677419354
3117.114180006594,-206.4516129032258
3118.1142166379723,-261.2903225806452
3119.1142532693507,-319.3548387096774
3120.114289900729,-312.9032258064516
3121.1143265321075,-277.41935483870964
3122.114363163486,-258.06451612903226
3123.1143997948643,-270.96774193548384
3124.1144364262427,-287.0967741935484
3125.114473057621,-287.0967741935484
3126.1145096889995,-283.8709677419355
3127.114546320378,-280.6451612903225
3128.1145829517563,-293.54838709677415
3129.1146195831348,-267.7419354838709
3130.1146562145136,-206.4516129032258
3131.114692845892,-187.09677419354836
3132.1147294772704,-170.96774193548387
3133.114766108649,-141.93548387096774
3134.1148027400272,-125.80645161290322
3135.1148393714057,-119.35483870967742
3136.114876002784,-116.12903225806453
3137.1149126341625,-109.6774193548387
3138.114949265541,-90.32258064516128
3139.1149858969193,-77.41935483870967
3140.1150225282977,-96.77419354838709
3141.115059159676,-132.258064516129
3142.1150957910545,-154.83870967741933
3143.115132422433,-154.83870967741933
3144.1151690538118,-141.93548387096774
3145.11520568519,-125.80645161290322
3146.1152423165686,-119.35483870967742
3147.115278947947,-122.58064516129032
3148.1153155793254,-125.80645161290322
3149.115352210704,-109.6774193548387
3150.115388842082,-87.09677419354838
3151.1154254734606,-70.96774193548387
3152.115462104839,-64.51612903225806
3153.1154987362174,-61.29032258064516
3154.115535367596,-67.74193548387096
3155.1155719989742,-83.87096774193549
3156.1156086303527,-96.77419354838709
3157.115645261731,-109.6774193548387
3158.11568189311,-112.9032258064516
3159.1157185244883,-125.80645161290322
3160.1157551558667,-132.258064516129
