timestamp,valores
0.0,219.3548387096774
1.0000238100907164,219.3548387096774
2.000047620181433,209.6774193548387
3.000071430272149,196.7741935483871
4.000095240362866,196.7741935483871
5.000119050453582,190.32258064516128
6.000142860544298,180.64516129032256
7.000166670635014,154.83870967741933
8.000190480725731,135.48387096774192
9.000214290816448,122.58064516129032
10.000238100907165,141.93548387096774
11.00026191099788,161.29032258064515
12.000285721088597,174.19354838709677
13.000309531179314,183.8709677419355
14.000333341270029,180.64516129032256
15.000357151360745,167.74193548387098
16.000380961451462,145.16129032258067
17.00040477154218,141.93548387096774
18.000428581632896,141.93548387096774
19.000452391723613,132.258064516129
20.00047620181433,122.58064516129032
21.000500011905043,99.99999999999999
22.00052382199576,64.51612903225806
23.000547632086477,38.70967741935483
24.000571442177193,16.129032258064516
25.00059525226791,32.25806451612903
26.000619062358627,64.51612903225806
27.000642872449344,83.87096774193549
28.000666682540057,96.77419354838709
29.000690492630774,96.77419354838709
30.00071430272149,87.09677419354838
31.000738112812208,67.74193548387096
32.000761922902925,45.16129032258064
33.00078573299364,32.25806451612903
34.00080954308436,32.25806451612903
35.000833353175075,22.58064516129032
36.00085716326579,0.0
37.00088097335651,0.0
38.000904783447226,9.677419354838708
39.00092859353794,12.903225806451612
40.00095240362866,16.129032258064516
41.00097621371937,16.129032258064516
42.001000023810086,19.354838709677416
43.0010238339008,29.03225806451613
44.00104764399152,29.03225806451613
45.001071454082236,16.129032258064516
46.00109526417295,22.58064516129032
47.00111907426367,48.387096774193544
48.00114288435439,77.41935483870967
49.001166694445104,90.32258064516128
50.00119050453582,90.32258064516128
51.00121431462654,61.29032258064516
52.001238124717254,35.483870967741936
53.00126193480797,29.03225806451613
54.00128574489869,35.483870967741936
55.001309554989405,45.16129032258064
56.001333365080114,48.387096774193544
57.00135717517083,51.61290322580645
58.00138098526155,41.935483870967744
59.001404795352265,19.354838709677416
60.00142860544298,-12.903225806451612
61.0014524155337,-45.16129032258064
62.001476225624415,-51.61290322580645
63.00150003571513,-48.387096774193544
64.00152384580585,-64.51612903225806
65.00154765589656,-58.06451612903226
66.00157146598728,-58.06451612903226
67.00159527607799,-67.74193548387096
68.00161908616872,-83.87096774193549
69.00164289625943,-96.77419354838709
70.00166670635015,-106.4516129032258
71.00169051644086,-109.6774193548387
72.00171432653158,-103.2258064516129
73.0017381366223,-83.87096774193549
74.00176194671302,-74.19354838709677
75.00178575680373,-58.06451612903226
76.00180956689445,-61.29032258064516
77.00183337698516,-58.06451612903226
78.00185718707588,-38.70967741935483
79.0018809971666,-9.677419354838708
80.00190480725732,-3.225806451612903
81.00192861734803,0.0
82.00195242743874,0.0
83.00197623752946,-16.129032258064516
84.00200004762017,-41.935483870967744
85.0020238577109,-58.06451612903226
86.0020476678016,-58.06451612903226
87.00207147789233,-41.935483870967744
88.00209528798304,-9.677419354838708
89.00211909807376,0.0
90.00214290816447,0.0
91.0021667182552,-9.677419354838708
92.0021905283459,-29.03225806451613
93.00221433843663,-38.70967741935483
94.00223814852734,-38.70967741935483
95.00226195861806,-25.806451612903224
96.00228576870877,-16.129032258064516
97.00230957879948,-3.225806451612903
98.00233338889021,6.451612903225806
99.00235719898092,19.354838709677416
100.00238100907164,35.483870967741936
101.00240481916235,29.03225806451613
102.00242862925307,19.354838709677416
103.00245243934378,16.129032258064516
104.00247624943451,3.225806451612903
105.00250005952522,-35.483870967741936
106.00252386961594,-58.06451612903226
107.00254767970665,-64.51612903225806
108.00257148979738,-58.06451612903226
109.00259529988809,-54.83870967741935
110.00261910997881,-61.29032258064516
111.00264292006952,-80.64516129032258
112.00266673016023,-93.54838709677418
113.00269054025095,-87.09677419354838
114.00271435034166,-67.74193548387096
115.00273816043239,-64.51612903225806
116.0027619705231,-90.32258064516128
117.00278578061382,-90.32258064516128
118.00280959070453,-61.29032258064516
119.00283340079525,-51.61290322580645
120.00285721088596,-54.83870967741935
121.00288102097669,-58.06451612903226
122.0029048310674,-54.83870967741935
123.00292864115812,-41.935483870967744
124.00295245124883,-38.70967741935483
125.00297626133955,-45.16129032258064
126.00300007143026,-48.387096774193544
127.00302388152099,-45.16129032258064
128.0030476916117,-32.25806451612903
129.0030715017024,-9.677419354838708
130.00309531179312,16.129032258064516
131.00311912188386,-12.903225806451612
132.00314293197457,-12.903225806451612
133.00316674206528,-6.451612903225806
134.00319055215598,-16.129032258064516
135.00321436224672,-35.483870967741936
136.00323817233743,-35.483870967741936
137.00326198242814,-12.903225806451612
138.00328579251885,3.225806451612903
139.0033096026096,12.903225806451612
140.0033334127003,29.03225806451613
141.003357222791,45.16129032258064
142.00338103288172,51.61290322580645
143.00340484297246,35.483870967741936
144.00342865306317,16.129032258064516
145.00345246315388,9.677419354838708
146.0034762732446,9.677419354838708
147.0035000833353,9.677419354838708
148.00352389342603,16.129032258064516
149.00354770351674,19.354838709677416
150.00357151360745,9.677419354838708
151.00359532369816,16.129032258064516
152.0036191337889,25.806451612903224
153.0036429438796,19.354838709677416
154.00366675397032,12.903225806451612
155.00369056406103,25.806451612903224
156.00371437415177,35.483870967741936
157.00373818424248,9.677419354838708
158.0037619943332,-9.677419354838708
159.0037858044239,-16.129032258064516
160.00380961451464,-41.935483870967744
161.00383342460535,-64.51612903225806
162.00385723469606,-58.06451612903226
163.00388104478677,-19.354838709677416
164.00390485487748,-12.903225806451612
165.0039286649682,-9.677419354838708
166.00395247505892,0.0
167.00397628514963,-6.451612903225806
168.00400009524034,-16.129032258064516
169.00402390533108,-32.25806451612903
170.0040477154218,-41.935483870967744
171.0040715255125,-51.61290322580645
172.0040953356032,-67.74193548387096
173.00411914569395,-93.54838709677418
174.00414295578466,-103.2258064516129
175.00416676587537,-106.4516129032258
176.00419057596608,-112.9032258064516
177.0042143860568,-122.58064516129032
178.00423819614753,-119.35483870967742
179.00426200623824,-116.12903225806453
180.00428581632895,-116.12903225806453
181.00430962641965,-132.258064516129
182.0043334365104,-129.03225806451613
183.0043572466011,-109.6774193548387
184.0043810566918,-70.96774193548387
185.00440486678252,-48.387096774193544
186.00442867687326,-51.61290322580645
187.00445248696397,-83.87096774193549
188.00447629705468,-129.03225806451613
189.0045001071454,-151.61290322580646
190.00452391723613,-132.258064516129
191.00454772732684,-93.54838709677418
192.00457153741755,-64.51612903225806
193.00459534750826,-41.935483870967744
194.00461915759897,-25.806451612903224
195.0046429676897,-25.806451612903224
196.00466677778041,-32.25806451612903
197.00469058787112,-45.16129032258064
198.00471439796183,-48.387096774193544
199.00473820805257,-48.387096774193544
200.00476201814328,-41.935483870967744
201.004785828234,-45.16129032258064
202.0048096383247,-61.29032258064516
203.00483344841544,-74.19354838709677
204.00485725850615,-80.64516129032258
205.00488106859686,-87.09677419354838
206.00490487868757,-96.77419354838709
207.0049286887783,-99.99999999999999
208.00495249886902,-93.54838709677418
209.00497630895973,-77.41935483870967
210.00500011905044,-67.74193548387096
211.00502392914115,-70.96774193548387
212.00504773923188,-80.64516129032258
213.0050715493226,-67.74193548387096
214.0050953594133,-45.16129032258064
215.005119169504,-41.935483870967744
216.00514297959475,-32.25806451612903
217.00516678968546,-6.451612903225806
218.00519059977617,25.806451612903224
219.00521440986688,38.70967741935483
220.00523821995762,25.806451612903224
221.00526203004833,19.354838709677416
222.00528584013904,29.03225806451613
223.00530965022975,38.70967741935483
224.00533346032046,48.387096774193544
225.0053572704112,41.935483870967744
226.0053810805019,38.70967741935483
227.00540489059262,54.83870967741935
228.00542870068332,77.41935483870967
229.00545251077406,109.6774193548387
230.00547632086477,141.93548387096774
231.00550013095548,170.96774193548387
232.0055239410462,212.9032258064516
233.00554775113693,251.61290322580643
234.00557156122764,277.41935483870964
235.00559537131835,325.8064516129032
236.00561918140906,377.41935483870964
237.0056429914998,403.22580645161287
238.0056668015905,416.12903225806446
239.00569061168122,435.4838709677419
240.00571442177193,448.3870967741935
241.00573823186264,441.9354838709677
242.00576204195337,429.0322580645161
243.00578585204408,425.8064516129032
244.0058096621348,438.7096774193548
245.0058334722255,429.0322580645161
246.00585728231624,399.99999999999994
247.00588109240695,361.2903225806451
248.00590490249766,319.3548387096774
249.00592871258837,274.19354838709677
250.0059525226791,232.25806451612905
251.00597633276982,183.8709677419355
252.00600014286053,132.258064516129
253.00602395295124,67.74193548387096
254.00604776304198,9.677419354838708
255.0060715731327,-41.935483870967744
256.0060953832234,-112.9032258064516
257.00611919331413,-196.7741935483871
258.0061430034048,-264.516129032258
259.00616681349555,-319.3548387096774
260.00619062358624,-390.3225806451613
261.006214433677,-458.0645161290322
262.0062382437677,-522.5806451612904
263.0062620538584,-574.1935483870968
264.00628586394913,-587.0967741935483
265.00630967403987,-548.3870967741935
266.00633348413055,-487.0967741935484
267.0063572942213,-432.25806451612897
268.00638110431197,-380.64516129032256
269.0064049144027,-354.83870967741933
270.00642872449345,-345.1612903225806
271.0064525345841,-322.5806451612903
272.00647634467487,-296.7741935483871
273.00650015476555,-277.41935483870964
274.0065239648563,-283.8709677419355
275.006547774947,-296.7741935483871
276.0065715850377,-287.0967741935484
277.00659539512844,-270.96774193548384
278.0066192052192,-251.61290322580643
279.00664301530986,-229.0322580645161
280.0066668254006,-203.2258064516129
281.0066906354913,-167.74193548387098
282.006714445582,-122.58064516129032
283.00673825567276,-70.96774193548387
284.00676206576344,-35.483870967741936
285.0067858758542,-19.354838709677416
286.0068096859449,-3.225806451612903
287.0068334960356,9.677419354838708
288.00685730612634,-9.677419354838708
289.006881116217,-29.03225806451613
290.00690492630775,-35.483870967741936
291.0069287363985,-35.483870967741936
292.0069525464892,-22.58064516129032
293.0069763565799,-12.903225806451612
294.0070001666706,-19.354838709677416
295.00702397676133,-35.483870967741936
296.00704778685207,-45.16129032258064
297.00707159694275,-41.935483870967744
298.0070954070335,-41.935483870967744
299.0071192171242,-41.935483870967744
300.0071430272149,-35.483870967741936
301.00716683730565,-12.903225806451612
302.0071906473963,3.225806451612903
303.00721445748707,3.225806451612903
304.0072382675778,3.225806451612903
305.0072620776685,3.225806451612903
306.0072858877592,-22.58064516129032
307.0073096978499,-45.16129032258064
308.00733350794064,-48.387096774193544
309.0073573180314,-48.387096774193544
310.00738112812206,-54.83870967741935
311.0074049382128,-61.29032258064516
312.00742874830354,-54.83870967741935
313.0074525583942,-48.387096774193544
314.00747636848496,-54.83870967741935
315.00750017857564,-45.16129032258064
316.0075239886664,-35.483870967741936
317.0075477987571,-25.806451612903224
318.0075716088478,-16.129032258064516
319.00759541893854,-12.903225806451612
320.0076192290293,-16.129032258064516
321.00764303911996,-25.806451612903224
322.0076668492107,-41.935483870967744
323.0076906593014,-51.61290322580645
324.0077144693921,-48.387096774193544
325.00773827948285,-38.70967741935483
326.00776208957353,-32.25806451612903
327.00778589966427,-16.129032258064516
328.00780970975495,3.225806451612903
329.0078335198457,16.129032258064516
330.0078573299364,35.483870967741936
331.0078811400271,58.06451612903226
332.00790495011785,77.41935483870967
333.0079287602086,87.09677419354838
334.00795257029927,103.2258064516129
335.00797638039,109.6774193548387
336.0080001904807,96.77419354838709
337.0080240005714,51.61290322580645
338.00804781066216,6.451612903225806
339.00807162075284,-16.129032258064516
340.0080954308436,-6.451612903225806
341.00811924093426,9.677419354838708
342.008143051025,22.58064516129032
343.00816686111574,51.61290322580645
344.0081906712064,83.87096774193549
345.00821448129716,99.99999999999999
346.0082382913879,99.99999999999999
347.0082621014786,93.54838709677418
348.0082859115693,93.54838709677418
349.00830972166,112.9032258064516
350.00833353175074,132.258064516129
351.0083573418415,154.83870967741933
352.00838115193216,141.93548387096774
353.0084049620229,116.12903225806453
354.0084287721136,90.32258064516128
355.0084525822043,80.64516129032258
356.00847639229505,93.54838709677418
357.00850020238573,106.4516129032258
358.00852401247647,106.4516129032258
359.0085478225672,106.4516129032258
360.0085716326579,122.58064516129032
361.00859544274863,158.06451612903226
362.0086192528393,154.83870967741933
363.00864306293005,154.83870967741933
364.0086668730208,187.09677419354836
365.00869068311147,232.25806451612905
366.0087144932022,235.48387096774195
367.00873830329294,235.48387096774195
368.0087621133836,264.516129032258
369.00878592347436,274.19354838709677
370.00880973356504,264.516129032258
371.0088335436558,251.61290322580643
372.0088573537465,245.16129032258064
373.0088811638372,248.38709677419354
374.00890497392794,245.16129032258064
375.0089287840186,274.19354838709677
376.00895259410936,319.3548387096774
377.0089764042001,325.8064516129032
378.0090002142908,335.48387096774195
379.0090240243815,329.0322580645161
380.00904783447226,316.1290322580645
381.00907164456294,296.7741935483871
382.0090954546537,274.19354838709677
383.00911926474436,280.6451612903225
384.0091430748351,293.54838709677415
385.00916688492583,267.7419354838709
386.0091906950165,235.48387096774195
387.00921450510725,209.6774193548387
388.00923831519793,174.19354838709677
389.00926212528867,154.83870967741933
390.0092859353794,154.83870967741933
391.0093097454701,151.61290322580646
392.00933355556083,148.38709677419354
393.00935736565157,148.38709677419354
394.00938117574225,145.16129032258067
395.009404985833,154.83870967741933
396.00942879592367,161.29032258064515
397.0094526060144,161.29032258064515
398.00947641610514,161.29032258064515
399.0095002261958,167.74193548387098
400.00952403628656,180.64516129032256
401.00954784637725,193.54838709677418
402.009571656468,193.54838709677418
403.0095954665587,180.64516129032256
404.0096192766494,164.51612903225805
405.00964308674014,161.29032258064515
406.0096668968309,154.83870967741933
407.00969070692156,138.70967741935482
408.0097145170123,116.12903225806453
409.009738327103,99.99999999999999
410.0097621371937,106.4516129032258
411.00978594728446,99.99999999999999
412.00980975737514,83.87096774193549
413.0098335674659,54.83870967741935
414.0098573775566,38.70967741935483
415.0098811876473,35.483870967741936
416.00990499773803,41.935483870967744
417.0099288078287,51.61290322580645
418.00995261791945,70.96774193548387
419.0099764280102,70.96774193548387
420.0100002381009,58.06451612903226
421.0100240481916,9.677419354838708
422.0100478582823,-38.70967741935483
423.01007166837303,-74.19354838709677
424.01009547846377,-87.09677419354838
425.01011928855445,-83.87096774193549
426.0101430986452,-64.51612903225806
427.0101669087359,-51.61290322580645
428.0101907188266,-51.61290322580645
429.01021452891734,-35.483870967741936
430.010238339008,-29.03225806451613
431.01026214909876,-25.806451612903224
432.0102859591895,-9.677419354838708
433.0103097692802,0.0
434.0103335793709,-16.129032258064516
435.0103573894616,-32.25806451612903
436.01038119955234,-3.225806451612903
437.0104050096431,41.935483870967744
438.01042881973376,64.51612903225806
439.0104526298245,54.83870967741935
440.01047643991524,41.935483870967744
441.0105002500059,12.903225806451612
442.01052406009666,-16.129032258064516
443.01054787018734,-32.25806451612903
444.0105716802781,-32.25806451612903
445.0105954903688,-16.129032258064516
446.0106193004595,-3.225806451612903
447.01064311055023,9.677419354838708
448.0106669206409,19.354838709677416
449.01069073073165,3.225806451612903
450.0107145408224,-32.25806451612903
451.0107383509131,-35.483870967741936
452.0107621610038,-16.129032258064516
453.01078597109455,-3.225806451612903
454.01080978118523,-12.903225806451612
455.01083359127597,-35.483870967741936
456.01085740136665,-54.83870967741935
457.0108812114574,-48.387096774193544
458.0109050215481,-38.70967741935483
459.0109288316388,-45.16129032258064
460.01095264172955,-51.61290322580645
461.0109764518203,-64.51612903225806
462.01100026191097,-80.64516129032258
463.0110240720017,-90.32258064516128
464.0110478820924,-96.77419354838709
465.0110716921831,-99.99999999999999
466.01109550227386,-122.58064516129032
467.01111931236454,-132.258064516129
468.0111431224553,-112.9032258064516
469.01116693254596,-103.2258064516129
470.0111907426367,-99.99999999999999
471.01121455272744,-112.9032258064516
472.0112383628181,-119.35483870967742
473.01126217290886,-112.9032258064516
474.0112859829996,-99.99999999999999
475.0113097930903,-90.32258064516128
476.011333603181,-74.19354838709677
477.0113574132717,-35.483870967741936
478.01138122336243,-6.451612903225806
479.0114050334532,9.677419354838708
480.01142884354385,-3.225806451612903
481.0114526536346,-35.483870967741936
482.0114764637253,-93.54838709677418
483.011500273816,-148.38709677419354
484.01152408390675,-183.8709677419355
485.01154789399743,-203.2258064516129
486.01157170408817,-212.9032258064516
487.0115955141789,-232.25806451612905
488.0116193242696,-196.7741935483871
489.0116431343603,-164.51612903225805
490.011666944451,-148.38709677419354
491.01169075454175,-138.70967741935482
492.0117145646325,-125.80645161290322
493.01173837472317,-103.2258064516129
494.0117621848139,-77.41935483870967
495.01178599490464,-67.74193548387096
496.0118098049953,-70.96774193548387
497.01183361508606,-77.41935483870967
498.01185742517674,-80.64516129032258
499.0118812352675,-93.54838709677418
500.0119050453582,-132.258064516129
501.0119288554489,-167.74193548387098
502.01195266553964,-193.54838709677418
503.0119764756303,-216.12903225806448
504.01200028572106,-232.25806451612905
505.0120240958118,-261.2903225806452
506.0120479059025,-280.6451612903225
507.0120717159932,-296.7741935483871
508.01209552608395,-290.32258064516134
509.01211933617464,-241.93548387096774
510.0121431462654,-170.96774193548387
511.01216695635605,-122.58064516129032
512.0121907664468,-87.09677419354838
513.0122145765375,-32.25806451612903
514.0122383866283,3.225806451612903
515.0122621967189,25.806451612903224
516.0122860068096,41.935483870967744
517.0123098169004,54.83870967741935
518.0123336269911,45.16129032258064
519.0123574370818,22.58064516129032
520.0123812471725,3.225806451612903
521.0124050572632,0.0
522.012428867354,0.0
523.0124526774447,-6.451612903225806
524.0124764875354,-16.129032258064516
525.0125002976262,-22.58064516129032
526.0125241077168,-41.935483870967744
527.0125479178075,-41.935483870967744
528.0125717278983,-25.806451612903224
529.012595537989,-9.677419354838708
530.0126193480797,9.677419354838708
531.0126431581704,32.25806451612903
532.0126669682611,54.83870967741935
533.0126907783518,67.74193548387096
534.0127145884426,77.41935483870967
535.0127383985333,83.87096774193549
536.0127622086239,80.64516129032258
537.0127860187147,64.51612903225806
538.0128098288054,38.70967741935483
539.0128336388962,-9.677419354838708
540.0128574489869,-58.06451612903226
541.0128812590775,-99.99999999999999
542.0129050691683,-129.03225806451613
543.012928879259,-132.258064516129
544.0129526893497,-112.9032258064516
545.0129764994405,-93.54838709677418
546.0130003095311,-70.96774193548387
547.0130241196218,-70.96774193548387
548.0130479297126,-74.19354838709677
549.0130717398033,-77.41935483870967
550.013095549894,-80.64516129032258
551.0131193599848,-90.32258064516128
552.0131431700754,-70.96774193548387
553.0131669801661,-38.70967741935483
554.0131907902569,-25.806451612903224
555.0132146003476,-41.935483870967744
556.0132384104384,-64.51612903225806
557.013262220529,-74.19354838709677
558.0132860306197,-70.96774193548387
559.0133098407105,-80.64516129032258
560.0133336508012,-90.32258064516128
561.0133574608919,-93.54838709677418
562.0133812709826,-83.87096774193549
563.0134050810733,-87.09677419354838
564.013428891164,-77.41935483870967
565.0134527012548,-77.41935483870967
566.0134765113455,-103.2258064516129
567.0135003214361,-112.9032258064516
568.0135241315269,-125.80645161290322
569.0135479416176,-138.70967741935482
570.0135717517084,-141.93548387096774
571.0135955617991,-135.48387096774192
572.0136193718898,-122.58064516129032
573.0136431819805,-125.80645161290322
574.0136669920712,-135.48387096774192
575.0136908021619,-112.9032258064516
576.0137146122527,-90.32258064516128
577.0137384223434,-99.99999999999999
578.013762232434,-103.2258064516129
579.0137860425248,-87.09677419354838
580.0138098526155,-74.19354838709677
581.0138336627062,-67.74193548387096
582.013857472797,-67.74193548387096
583.0138812828876,-67.74193548387096
584.0139050929783,-38.70967741935483
585.0139289030691,-19.354838709677416
586.0139527131598,9.677419354838708
587.0139765232506,38.70967741935483
588.0140003333412,35.483870967741936
589.0140241434319,16.129032258064516
590.0140479535227,0.0
591.0140717636134,-25.806451612903224
592.0140955737041,-51.61290322580645
593.0141193837948,-61.29032258064516
594.0141431938855,-70.96774193548387
595.0141670039762,-54.83870967741935
596.014190814067,-35.483870967741936
597.0142146241577,-45.16129032258064
598.0142384342485,-35.483870967741936
599.0142622443391,-45.16129032258064
600.0142860544298,-87.09677419354838
601.0143098645206,-125.80645161290322
602.0143336746113,-148.38709677419354
603.014357484702,-138.70967741935482
604.0143812947927,-138.70967741935482
605.0144051048834,-138.70967741935482
606.0144289149741,-135.48387096774192
607.0144527250649,-125.80645161290322
608.0144765351556,-112.9032258064516
609.0145003452462,-96.77419354838709
610.014524155337,-80.64516129032258
611.0145479654277,-48.387096774193544
612.0145717755184,22.58064516129032
613.0145955856092,93.54838709677418
614.0146193956998,106.4516129032258
615.0146432057905,96.77419354838709
616.0146670158813,87.09677419354838
617.014690825972,54.83870967741935
618.0147146360628,38.70967741935483
619.0147384461535,32.25806451612903
620.0147622562441,54.83870967741935
621.0147860663349,129.03225806451613
622.0148098764256,206.4516129032258
623.0148336865163,267.7419354838709
624.0148574966071,316.1290322580645
625.0148813066977,348.38709677419354
626.0149051167884,358.06451612903226
627.0149289268792,361.2903225806451
628.0149527369699,380.64516129032256
629.0149765470607,412.9032258064516
630.0150003571513,425.8064516129032
631.015024167242,393.5483870967742
632.0150479773328,341.93548387096774
633.0150717874235,322.5806451612903
634.0150955975142,325.8064516129032
635.0151194076049,316.1290322580645
636.0151432176956,293.54838709677415
637.0151670277863,251.61290322580643
638.0151908378771,212.9032258064516
639.0152146479678,174.19354838709677
640.0152384580585,125.80645161290322
641.0152622681492,83.87096774193549
642.0152860782399,38.70967741935483
643.0153098883306,-9.677419354838708
644.0153336984214,-77.41935483870967
645.0153575085121,-154.83870967741933
646.0153813186027,-225.8064516129032
647.0154051286935,-258.06451612903226
648.0154289387842,-293.54838709677415
649.015452748875,-341.93548387096774
650.0154765589657,-396.77419354838713
651.0155003690563,-451.6129032258064
652.0155241791471,-493.54838709677415
653.0155479892378,-506.45161290322585
654.0155717993285,-490.3225806451613
655.0155956094193,-470.9677419354839
656.0156194195099,-477.4193548387097
657.0156432296006,-483.8709677419355
658.0156670396914,-454.8387096774193
659.0156908497821,-425.8064516129032
660.0157146598729,-396.77419354838713
661.0157384699635,-367.741935483871
662.0157622800542,-351.61290322580646
663.015786090145,-329.0322580645161
664.0158099002357,-277.41935483870964
665.0158337103264,-229.0322580645161
666.0158575204172,-199.99999999999997
667.0158813305078,-158.06451612903226
668.0159051405985,-112.9032258064516
669.0159289506893,-90.32258064516128
670.01595276078,-80.64516129032258
671.0159765708707,-90.32258064516128
672.0160003809614,-103.2258064516129
673.0160241910521,-106.4516129032258
674.0160480011428,-103.2258064516129
675.0160718112336,-119.35483870967742
676.0160956213243,-158.06451612903226
677.016119431415,-190.32258064516128
678.0161432415057,-196.7741935483871
679.0161670515964,-190.32258064516128
680.0161908616872,-161.29032258064515
681.0162146717779,-135.48387096774192
682.0162384818685,-125.80645161290322
683.0162622919593,-132.258064516129
684.01628610205,-129.03225806451613
685.0163099121407,-83.87096774193549
686.0163337222315,-51.61290322580645
687.0163575323222,-35.483870967741936
688.0163813424128,-12.903225806451612
689.0164051525036,-6.451612903225806
690.0164289625943,3.225806451612903
691.016452772685,0.0
692.0164765827758,16.129032258064516
693.0165003928664,54.83870967741935
694.0165242029572,87.09677419354838
695.0165480130479,103.2258064516129
696.0165718231386,103.2258064516129
697.0165956332294,96.77419354838709
698.01661944332,67.74193548387096
699.0166432534107,48.387096774193544
700.0166670635015,35.483870967741936
701.0166908735922,41.935483870967744
702.016714683683,74.19354838709677
703.0167384937736,83.87096774193549
704.0167623038643,64.51612903225806
705.016786113955,45.16129032258064
706.0168099240458,35.483870967741936
707.0168337341365,16.129032258064516
708.0168575442272,16.129032258064516
709.0168813543179,6.451612903225806
710.0169051644086,6.451612903225806
711.0169289744994,3.225806451612903
712.0169527845901,51.61290322580645
713.0169765946808,125.80645161290322
714.0170004047715,158.06451612903226
715.0170242148622,158.06451612903226
716.0170480249529,151.61290322580646
717.0170718350437,148.38709677419354
718.0170956451344,154.83870967741933
719.017119455225,154.83870967741933
720.0171432653158,154.83870967741933
721.0171670754065,129.03225806451613
722.0171908854973,116.12903225806453
723.017214695588,74.19354838709677
724.0172385056786,19.354838709677416
725.0172623157694,-22.58064516129032
726.0172861258601,-29.03225806451613
727.0173099359508,-3.225806451612903
728.0173337460416,41.935483870967744
729.0173575561322,87.09677419354838
730.0173813662229,116.12903225806453
731.0174051763137,138.70967741935482
732.0174289864044,167.74193548387098
733.0174527964951,187.09677419354836
734.0174766065859,190.32258064516128
735.0175004166765,174.19354838709677
736.0175242267673,145.16129032258067
737.017548036858,106.4516129032258
738.0175718469487,83.87096774193549
739.0175956570395,54.83870967741935
740.0176194671301,29.03225806451613
741.0176432772208,16.129032258064516
742.0176670873116,-3.225806451612903
743.0176908974023,6.451612903225806
744.017714707493,35.483870967741936
745.0177385175837,77.41935483870967
746.0177623276744,119.35483870967742
747.0177861377651,154.83870967741933
748.0178099478559,177.41935483870967
749.0178337579466,164.51612903225805
750.0178575680372,145.16129032258067
751.017881378128,116.12903225806453
752.0179051882187,83.87096774193549
753.0179289983095,58.06451612903226
754.0179528084002,38.70967741935483
755.0179766184908,29.03225806451613
756.0180004285816,35.483870967741936
757.0180242386723,61.29032258064516
758.018048048763,87.09677419354838
759.0180718588538,122.58064516129032
760.0180956689445,141.93548387096774
761.0181194790351,148.38709677419354
762.0181432891259,164.51612903225805
763.0181670992166,170.96774193548387
764.0181909093074,164.51612903225805
765.0182147193981,167.74193548387098
766.0182385294887,141.93548387096774
767.0182623395795,116.12903225806453
768.0182861496702,93.54838709677418
769.0183099597609,70.96774193548387
770.0183337698517,51.61290322580645
771.0183575799423,48.387096774193544
772.018381390033,74.19354838709677
773.0184052001238,132.258064516129
774.0184290102145,174.19354838709677
775.0184528203052,209.6774193548387
776.0184766303959,238.70967741935485
777.0185004404866,245.16129032258064
778.0185242505773,241.93548387096774
779.0185480606681,229.0322580645161
780.0185718707588,219.3548387096774
781.0185956808496,209.6774193548387
782.0186194909402,209.6774193548387
783.0186433010309,203.2258064516129
784.0186671111217,193.54838709677418
785.0186909212124,187.09677419354836
786.0187147313031,180.64516129032256
787.0187385413938,187.09677419354836
788.0187623514845,193.54838709677418
789.0187861615752,190.32258064516128
790.018809971666,177.41935483870967
791.0188337817567,174.19354838709677
792.0188575918473,170.96774193548387
793.0188814019381,193.54838709677418
794.0189052120288,206.4516129032258
795.0189290221196,199.99999999999997
796.0189528322103,154.83870967741933
797.0189766423009,80.64516129032258
798.0190004523917,45.16129032258064
799.0190242624824,29.03225806451613
800.0190480725731,12.903225806451612
801.0190718826639,16.129032258064516
802.0190956927545,16.129032258064516
803.0191195028452,19.354838709677416
804.019143312936,41.935483870967744
805.0191671230267,67.74193548387096
806.0191909331174,90.32258064516128
807.0192147432082,103.2258064516129
808.0192385532988,119.35483870967742
809.0192623633895,87.09677419354838
810.0192861734803,6.451612903225806
811.019309983571,-61.29032258064516
812.0193337936618,-77.41935483870967
813.0193576037524,-41.935483870967744
814.0193814138431,-16.129032258064516
815.0194052239339,-32.25806451612903
816.0194290340246,-61.29032258064516
817.0194528441153,-48.387096774193544
818.019476654206,-9.677419354838708
819.0195004642967,-9.677419354838708
820.0195242743874,-25.806451612903224
821.0195480844782,-29.03225806451613
822.0195718945689,-12.903225806451612
823.0195957046595,3.225806451612903
824.0196195147503,-12.903225806451612
825.019643324841,-45.16129032258064
826.0196671349318,-70.96774193548387
827.0196909450225,-83.87096774193549
828.0197147551132,-80.64516129032258
829.0197385652039,-70.96774193548387
830.0197623752946,-41.935483870967744
831.0197861853853,-19.354838709677416
832.0198099954761,9.677419354838708
833.0198338055668,12.903225806451612
834.0198576156574,12.903225806451612
835.0198814257482,19.354838709677416
836.0199052358389,25.806451612903224
837.0199290459296,16.129032258064516
838.0199528560204,12.903225806451612
839.019976666111,-16.129032258064516
840.0200004762017,-48.387096774193544
841.0200242862925,-58.06451612903226
842.0200480963832,-48.387096774193544
843.020071906474,-41.935483870967744
844.0200957165646,-41.935483870967744
845.0201195266553,-29.03225806451613
846.0201433367461,-12.903225806451612
847.0201671468368,3.225806451612903
848.0201909569275,16.129032258064516
849.0202147670182,16.129032258064516
850.0202385771089,9.677419354838708
851.0202623871996,6.451612903225806
852.0202861972904,-9.677419354838708
853.0203100073811,-38.70967741935483
854.0203338174719,-87.09677419354838
855.0203576275625,-119.35483870967742
856.0203814376532,-129.03225806451613
857.020405247744,-132.258064516129
858.0204290578347,-132.258064516129
859.0204528679254,-148.38709677419354
860.020476678016,-180.64516129032256
861.0205004881068,-203.2258064516129
862.0205242981975,-174.19354838709677
863.0205481082883,-122.58064516129032
864.020571918379,-58.06451612903226
865.0205957284696,-22.58064516129032
866.0206195385604,-12.903225806451612
867.0206433486511,-3.225806451612903
868.0206671587418,0.0
869.0206909688326,-19.354838709677416
870.0207147789232,-48.387096774193544
871.020738589014,-80.64516129032258
872.0207623991047,-106.4516129032258
873.0207862091954,-138.70967741935482
874.0208100192862,-177.41935483870967
875.0208338293769,-203.2258064516129
876.0208576394675,-219.3548387096774
877.0208814495583,-232.25806451612905
878.020905259649,-238.70967741935485
879.0209290697397,-222.5806451612903
880.0209528798305,-190.32258064516128
881.0209766899211,-122.58064516129032
882.0210005000118,-64.51612903225806
883.0210243101026,-32.25806451612903
884.0210481201933,6.451612903225806
885.021071930284,38.70967741935483
886.0210957403747,41.935483870967744
887.0211195504654,9.677419354838708
888.0211433605562,9.677419354838708
889.0211671706469,41.935483870967744
890.0211909807376,80.64516129032258
891.0212147908283,106.4516129032258
892.021238600919,122.58064516129032
893.0212624110097,119.35483870967742
894.0212862211005,93.54838709677418
895.0213100311912,80.64516129032258
896.0213338412818,67.74193548387096
897.0213576513726,74.19354838709677
898.0213814614633,93.54838709677418
899.021405271554,70.96774193548387
900.0214290816448,54.83870967741935
901.0214528917355,41.935483870967744
902.0214767018261,16.129032258064516
903.0215005119169,-25.806451612903224
904.0215243220076,-93.54838709677418
905.0215481320984,-164.51612903225805
906.0215719421891,-212.9032258064516
907.0215957522797,-222.5806451612903
908.0216195623705,-187.09677419354836
909.0216433724612,-135.48387096774192
910.0216671825519,-99.99999999999999
911.0216909926427,-64.51612903225806
912.0217148027333,-19.354838709677416
913.021738612824,3.225806451612903
914.0217624229148,29.03225806451613
915.0217862330055,38.70967741935483
916.0218100430963,16.129032258064516
917.0218338531869,3.225806451612903
918.0218576632776,19.354838709677416
919.0218814733684,29.03225806451613
920.0219052834591,51.61290322580645
921.0219290935498,87.09677419354838
922.0219529036406,93.54838709677418
923.0219767137312,83.87096774193549
924.0220005238219,61.29032258064516
925.0220243339127,22.58064516129032
926.0220481440034,-29.03225806451613
927.0220719540941,-87.09677419354838
928.0220957641848,-116.12903225806453
929.0221195742755,-151.61290322580646
930.0221433843662,-187.09677419354836
931.022167194457,-212.9032258064516
932.0221910045477,-199.99999999999997
933.0222148146383,-161.29032258064515
934.0222386247291,-129.03225806451613
935.0222624348198,-96.77419354838709
936.0222862449106,-70.96774193548387
937.0223100550013,-45.16129032258064
938.0223338650919,-45.16129032258064
939.0223576751827,-51.61290322580645
940.0223814852734,-35.483870967741936
941.0224052953641,-16.129032258064516
942.0224291054549,-6.451612903225806
943.0224529155456,3.225806451612903
944.0224767256362,-6.451612903225806
945.022500535727,-6.451612903225806
946.0225243458177,-25.806451612903224
947.0225481559085,-58.06451612903226
948.0225719659992,-58.06451612903226
949.0225957760898,-51.61290322580645
950.0226195861806,-54.83870967741935
951.0226433962713,-64.51612903225806
952.022667206362,-67.74193548387096
953.0226910164528,-67.74193548387096
954.0227148265434,-74.19354838709677
955.0227386366341,-54.83870967741935
956.0227624467249,-41.935483870967744
957.0227862568156,-12.903225806451612
958.0228100669063,38.70967741935483
959.022833876997,129.03225806451613
960.0228576870877,203.2258064516129
961.0228814971784,193.54838709677418
962.0229053072692,141.93548387096774
963.0229291173599,93.54838709677418
964.0229529274505,48.387096774193544
965.0229767375413,16.129032258064516
966.023000547632,6.451612903225806
967.0230243577228,-3.225806451612903
968.0230481678135,-9.677419354838708
969.0230719779042,-19.354838709677416
970.0230957879949,-41.935483870967744
971.0231195980856,-58.06451612903226
972.0231434081763,-54.83870967741935
973.0231672182671,-64.51612903225806
974.0231910283578,-70.96774193548387
975.0232148384484,-80.64516129032258
976.0232386485392,-112.9032258064516
977.0232624586299,-158.06451612903226
978.0232862687207,-180.64516129032256
979.0233100788114,-180.64516129032256
980.023333888902,-174.19354838709677
981.0233576989928,-158.06451612903226
982.0233815090835,-116.12903225806453
983.0234053191742,-64.51612903225806
984.023429129265,-3.225806451612903
985.0234529393556,64.51612903225806
986.0234767494463,77.41935483870967
987.0235005595371,48.387096774193544
988.0235243696278,29.03225806451613
989.0235481797185,16.129032258064516
990.0235719898093,-6.451612903225806
991.0235957998999,-9.677419354838708
992.0236196099906,22.58064516129032
993.0236434200814,58.06451612903226
994.0236672301721,70.96774193548387
995.0236910402629,61.29032258064516
996.0237148503535,32.25806451612903
997.0237386604442,25.806451612903224
998.023762470535,12.903225806451612
999.0237862806257,16.129032258064516
1000.0238100907164,9.677419354838708
1001.0238339008071,6.451612903225806
1002.0238577108978,25.806451612903224
1003.0238815209885,38.70967741935483
1004.0239053310793,45.16129032258064
1005.02392914117,61.29032258064516
1006.0239529512606,90.32258064516128
1007.0239767613514,109.6774193548387
1008.0240005714421,112.9032258064516
1009.0240243815329,125.80645161290322
1010.0240481916236,141.93548387096774
1011.0240720017142,158.06451612903226
1012.024095811805,177.41935483870967
1013.0241196218957,216.12903225806448
1014.0241434319864,287.0967741935484
1015.0241672420772,367.741935483871
1016.0241910521679,419.3548387096774
1017.0242148622585,441.9354838709677
1018.0242386723493,458.0645161290322
1019.02426248244,454.8387096774193
1020.0242862925307,458.0645161290322
1021.0243101026215,416.12903225806446
1022.0243339127121,364.51612903225805
1023.0243577228028,306.4516129032258
1024.0243815328936,235.48387096774195
1025.0244053429842,187.09677419354836
1026.024429153075,151.61290322580646
1027.0244529631657,112.9032258064516
1028.0244767732565,61.29032258064516
1029.0245005833472,6.451612903225806
1030.0245243934378,-12.903225806451612
1031.0245482035286,-22.58064516129032
1032.0245720136193,-9.677419354838708
1033.0245958237101,-16.129032258064516
1034.0246196338007,-80.64516129032258
1035.0246434438914,-174.19354838709677
1036.0246672539822,-264.516129032258
1037.0246910640728,-329.0322580645161
1038.0247148741637,-377.41935483870964
1039.0247386842543,-448.3870967741935
1040.024762494345,-512.9032258064516
1041.0247863044358,-548.3870967741935
1042.0248101145264,-561.290322580645
1043.0248339246173,-548.3870967741935
1044.024857734708,-529.032258064516
1045.0248815447985,-500.0
1046.0249053548894,-490.3225806451613
1047.02492916498,-461.2903225806451
1048.0249529750708,-429.0322580645161
1049.0249767851615,-387.09677419354836
1050.0250005952523,-335.48387096774195
1051.025024405343,-283.8709677419355
1052.0250482154336,-229.0322580645161
1053.0250720255244,-190.32258064516128
1054.025095835615,-167.74193548387098
1055.025119645706,-135.48387096774192
1056.0251434557965,-99.99999999999999
1057.0251672658871,-90.32258064516128
1058.025191075978,-96.77419354838709
1059.0252148860686,-87.09677419354838
1060.0252386961595,-67.74193548387096
1061.02526250625,-74.19354838709677
1062.0252863163407,-77.41935483870967
1063.0253101264316,-54.83870967741935
1064.0253339365222,-35.483870967741936
1065.025357746613,-22.58064516129032
1066.0253815567037,-9.677419354838708
1067.0254053667943,-3.225806451612903
1068.0254291768852,16.129032258064516
1069.0254529869758,61.29032258064516
1070.0254767970666,93.54838709677418
1071.0255006071573,87.09677419354838
1072.0255244172479,58.06451612903226
1073.0255482273387,51.61290322580645
1074.0255720374294,58.06451612903226
1075.0255958475202,80.64516129032258
1076.0256196576108,87.09677419354838
1077.0256434677015,67.74193548387096
1078.0256672777923,38.70967741935483
1079.025691087883,9.677419354838708
1080.0257148979738,22.58064516129032
1081.0257387080644,45.16129032258064
1082.025762518155,61.29032258064516
1083.0257863282459,58.06451612903226
1084.0258101383365,48.387096774193544
1085.0258339484274,45.16129032258064
1086.025857758518,51.61290322580645
1087.0258815686086,45.16129032258064
1088.0259053786995,16.129032258064516
1089.02592918879,-9.677419354838708
1090.025952998881,-9.677419354838708
1091.0259768089716,9.677419354838708
1092.0260006190622,48.387096774193544
1093.026024429153,77.41935483870967
1094.0260482392437,90.32258064516128
1095.0260720493345,83.87096774193549
1096.0260958594251,61.29032258064516
1097.026119669516,45.16129032258064
1098.0261434796066,64.51612903225806
1099.0261672896972,109.6774193548387
1100.026191099788,122.58064516129032
1101.0262149098787,106.4516129032258
1102.0262387199696,99.99999999999999
1103.0262625300602,87.09677419354838
1104.0262863401508,58.06451612903226
1105.0263101502417,54.83870967741935
1106.0263339603323,48.387096774193544
1107.0263577704231,-3.225806451612903
1108.0263815805138,-38.70967741935483
1109.0264053906044,-22.58064516129032
1110.0264292006952,12.903225806451612
1111.0264530107859,22.58064516129032
1112.0264768208767,35.483870967741936
1113.0265006309673,35.483870967741936
1114.026524441058,38.70967741935483
1115.0265482511488,51.61290322580645
1116.0265720612394,64.51612903225806
1117.0265958713303,74.19354838709677
1118.026619681421,77.41935483870967
1119.0266434915115,67.74193548387096
1120.0266673016024,77.41935483870967
1121.026691111693,87.09677419354838
1122.0267149217839,116.12903225806453
1123.0267387318745,145.16129032258067
1124.0267625419651,170.96774193548387
1125.026786352056,170.96774193548387
1126.0268101621466,196.7741935483871
1127.0268339722375,203.2258064516129
1128.026857782328,196.7741935483871
1129.0268815924187,206.4516129032258
1130.0269054025096,190.32258064516128
1131.0269292126002,148.38709677419354
1132.026953022691,112.9032258064516
1133.0269768327817,93.54838709677418
1134.0270006428723,70.96774193548387
1135.0270244529631,64.51612903225806
1136.0270482630538,87.09677419354838
1137.0270720731446,125.80645161290322
1138.0270958832352,148.38709677419354
1139.0271196933259,135.48387096774192
1140.0271435034167,112.9032258064516
1141.0271673135073,106.4516129032258
1142.0271911235982,109.6774193548387
1143.0272149336888,122.58064516129032
1144.0272387437797,145.16129032258067
1145.0272625538703,180.64516129032256
1146.027286363961,216.12903225806448
1147.0273101740518,245.16129032258064
1148.0273339841424,264.516129032258
1149.0273577942332,264.516129032258
1150.0273816043239,251.61290322580643
1151.0274054144145,222.5806451612903
1152.0274292245053,183.8709677419355
1153.027453034596,154.83870967741933
1154.0274768446868,180.64516129032256
1155.0275006547774,209.6774193548387
1156.027524464868,190.32258064516128
1157.027548274959,177.41935483870967
1158.0275720850495,174.19354838709677
1159.0275958951404,177.41935483870967
1160.027619705231,203.2258064516129
1161.0276435153216,219.3548387096774
1162.0276673254125,199.99999999999997
1163.0276911355031,177.41935483870967
1164.027714945594,164.51612903225805
1165.0277387556846,180.64516129032256
1166.0277625657752,193.54838709677418
1167.027786375866,190.32258064516128
1168.0278101859567,177.41935483870967
1169.0278339960475,187.09677419354836
1170.0278578061382,180.64516129032256
1171.0278816162288,141.93548387096774
1172.0279054263196,87.09677419354838
1173.0279292364103,51.61290322580645
1174.0279530465011,41.935483870967744
1175.0279768565917,45.16129032258064
1176.0280006666824,41.935483870967744
1177.0280244767732,51.61290322580645
1178.0280482868639,99.99999999999999
1179.0280720969547,138.70967741935482
1180.0280959070453,161.29032258064515
1181.028119717136,158.06451612903226
1182.0281435272268,164.51612903225805
1183.0281673373174,177.41935483870967
1184.0281911474083,177.41935483870967
1185.028214957499,183.8709677419355
1186.0282387675895,187.09677419354836
1187.0282625776804,170.96774193548387
1188.028286387771,145.16129032258067
1189.0283101978619,132.258064516129
1190.0283340079525,106.4516129032258
1191.0283578180433,87.09677419354838
1192.028381628134,61.29032258064516
1193.0284054382246,54.83870967741935
1194.0284292483154,58.06451612903226
1195.028453058406,48.387096774193544
1196.028476868497,51.61290322580645
1197.0285006785875,77.41935483870967
1198.0285244886782,87.09677419354838
1199.028548298769,61.29032258064516
1200.0285721088596,54.83870967741935
1201.0285959189505,70.96774193548387
1202.028619729041,64.51612903225806
1203.0286435391317,51.61290322580645
1204.0286673492226,41.935483870967744
1205.0286911593132,51.61290322580645
1206.028714969404,61.29032258064516
1207.0287387794947,51.61290322580645
1208.0287625895853,29.03225806451613
1209.0287863996762,9.677419354838708
1210.0288102097668,3.225806451612903
1211.0288340198576,3.225806451612903
1212.0288578299483,6.451612903225806
1213.028881640039,9.677419354838708
1214.0289054501297,19.354838709677416
1215.0289292602204,9.677419354838708
1216.0289530703112,-35.483870967741936
1217.0289768804018,-67.74193548387096
1218.0290006904925,-74.19354838709677
1219.0290245005833,-48.387096774193544
1220.029048310674,-48.387096774193544
1221.0290721207648,-45.16129032258064
1222.0290959308554,-9.677419354838708
1223.029119740946,12.903225806451612
1224.029143551037,9.677419354838708
1225.0291673611275,-6.451612903225806
1226.0291911712184,-25.806451612903224
1227.029214981309,-45.16129032258064
1228.0292387913996,-38.70967741935483
1229.0292626014905,-29.03225806451613
1230.029286411581,-19.354838709677416
1231.029310221672,-25.806451612903224
1232.0293340317626,-29.03225806451613
1233.0293578418532,-25.806451612903224
1234.029381651944,-22.58064516129032
1235.0294054620347,-19.354838709677416
1236.0294292721255,-35.483870967741936
1237.0294530822162,-45.16129032258064
1238.029476892307,-45.16129032258064
1239.0295007023976,-54.83870967741935
1240.0295245124883,-64.51612903225806
1241.029548322579,-61.29032258064516
1242.0295721326697,-45.16129032258064
1243.0295959427606,-35.483870967741936
1244.0296197528512,-35.483870967741936
1245.0296435629418,-25.806451612903224
1246.0296673730327,3.225806451612903
1247.0296911831233,32.25806451612903
1248.0297149932142,38.70967741935483
1249.0297388033048,25.806451612903224
1250.0297626133954,22.58064516129032
1251.0297864234863,0.0
1252.0298102335769,-41.935483870967744
1253.0298340436677,-64.51612903225806
1254.0298578537584,-64.51612903225806
1255.029881663849,-77.41935483870967
1256.0299054739398,-87.09677419354838
1257.0299292840305,-80.64516129032258
1258.0299530941213,-83.87096774193549
1259.029976904212,-90.32258064516128
1260.0300007143026,-64.51612903225806
1261.0300245243934,-35.483870967741936
1262.030048334484,-29.03225806451613
1263.030072144575,-45.16129032258064
1264.0300959546655,-61.29032258064516
1265.0301197647561,-74.19354838709677
1266.030143574847,-74.19354838709677
1267.0301673849376,-67.74193548387096
1268.0301911950285,-74.19354838709677
1269.030215005119,-93.54838709677418
1270.0302388152097,-109.6774193548387
1271.0302626253006,-106.4516129032258
1272.0302864353912,-93.54838709677418
1273.030310245482,-99.99999999999999
1274.0303340555727,-90.32258064516128
1275.0303578656633,-64.51612903225806
1276.0303816757541,-48.387096774193544
1277.0304054858448,-61.29032258064516
1278.0304292959356,-74.19354838709677
1279.0304531060262,-77.41935483870967
1280.030476916117,-77.41935483870967
1281.0305007262077,-77.41935483870967
1282.0305245362983,-67.74193548387096
1283.0305483463892,-48.387096774193544
1284.0305721564798,-29.03225806451613
1285.0305959665707,-6.451612903225806
1286.0306197766613,3.225806451612903
1287.030643586752,3.225806451612903
1288.0306673968428,25.806451612903224
1289.0306912069334,25.806451612903224
1290.0307150170242,-6.451612903225806
1291.0307388271149,-51.61290322580645
1292.0307626372055,-61.29032258064516
1293.0307864472964,-6.451612903225806
1294.030810257387,25.806451612903224
1295.0308340674778,25.806451612903224
1296.0308578775685,-12.903225806451612
1297.030881687659,-45.16129032258064
1298.03090549775,-74.19354838709677
1299.0309293078406,-67.74193548387096
1300.0309531179314,-41.935483870967744
1301.030976928022,-12.903225806451612
1302.0310007381127,12.903225806451612
1303.0310245482035,45.16129032258064
1304.0310483582941,54.83870967741935
1305.031072168385,38.70967741935483
1306.0310959784756,12.903225806451612
1307.0311197885662,-22.58064516129032
1308.031143598657,-25.806451612903224
1309.0311674087477,-25.806451612903224
1310.0311912188386,-32.25806451612903
1311.0312150289292,-45.16129032258064
1312.0312388390198,-51.61290322580645
1313.0312626491107,-64.51612903225806
1314.0312864592013,-64.51612903225806
1315.0313102692921,-48.387096774193544
1316.0313340793828,-29.03225806451613
1317.0313578894734,0.0
1318.0313816995642,38.70967741935483
1319.0314055096549,70.96774193548387
1320.0314293197457,67.74193548387096
1321.0314531298363,51.61290322580645
1322.031476939927,48.387096774193544
1323.0315007500178,54.83870967741935
1324.0315245601084,54.83870967741935
1325.0315483701993,61.29032258064516
1326.03157218029,54.83870967741935
1327.0315959903808,54.83870967741935
1328.0316198004714,64.51612903225806
1329.031643610562,64.51612903225806
1330.0316674206529,45.16129032258064
1331.0316912307435,29.03225806451613
1332.0317150408343,48.387096774193544
1333.031738850925,77.41935483870967
1334.0317626610156,83.87096774193549
1335.0317864711064,77.41935483870967
1336.031810281197,41.935483870967744
1337.031834091288,32.25806451612903
1338.0318579013785,25.806451612903224
1339.0318817114692,-12.903225806451612
1340.03190552156,-64.51612903225806
1341.0319293316506,-109.6774193548387
1342.0319531417415,-148.38709677419354
1343.0319769518321,-167.74193548387098
1344.0320007619227,-138.70967741935482
1345.0320245720136,-103.2258064516129
1346.0320483821042,-77.41935483870967
1347.032072192195,-64.51612903225806
1348.0320960022857,-77.41935483870967
1349.0321198123763,-116.12903225806453
1350.0321436224672,-151.61290322580646
1351.0321674325578,-158.06451612903226
1352.0321912426487,-145.16129032258067
1353.0322150527393,-138.70967741935482
1354.03223886283,-145.16129032258067
1355.0322626729208,-129.03225806451613
1356.0322864830114,-90.32258064516128
1357.0323102931022,-70.96774193548387
1358.0323341031929,-77.41935483870967
1359.0323579132835,-83.87096774193549
1360.0323817233743,-93.54838709677418
1361.032405533465,-112.9032258064516
1362.0324293435558,-96.77419354838709
1363.0324531536464,-70.96774193548387
1364.032476963737,-61.29032258064516
1365.032500773828,-67.74193548387096
1366.0325245839185,-77.41935483870967
1367.0325483940094,-61.29032258064516
1368.0325722041,-45.16129032258064
1369.0325960141906,-51.61290322580645
1370.0326198242815,-77.41935483870967
1371.032643634372,-112.9032258064516
1372.032667444463,-138.70967741935482
1373.0326912545536,-129.03225806451613
1374.0327150646444,-96.77419354838709
1375.032738874735,-77.41935483870967
1376.0327626848257,-38.70967741935483
1377.0327864949165,3.225806451612903
1378.0328103050072,9.677419354838708
1379.032834115098,6.451612903225806
1380.0328579251886,3.225806451612903
1381.0328817352793,3.225806451612903
1382.03290554537,-3.225806451612903
1383.0329293554607,-19.354838709677416
1384.0329531655516,-29.03225806451613
1385.0329769756422,-38.70967741935483
1386.0330007857328,-54.83870967741935
1387.0330245958237,-67.74193548387096
1388.0330484059143,-58.06451612903226
1389.0330722160052,-48.387096774193544
1390.0330960260958,-16.129032258064516
1391.0331198361864,19.354838709677416
1392.0331436462773,41.935483870967744
1393.033167456368,58.06451612903226
1394.0331912664587,64.51612903225806
1395.0332150765494,90.32258064516128
1396.03323888664,135.48387096774192
1397.0332626967308,183.8709677419355
1398.0332865068215,209.6774193548387
1399.0333103169123,238.70967741935485
1400.033334127003,280.6451612903225
1401.0333579370936,322.5806451612903
1402.0333817471844,341.93548387096774
1403.033405557275,345.1612903225806
1404.033429367366,348.38709677419354
1405.0334531774565,335.48387096774195
1406.0334769875471,332.25806451612897
1407.033500797638,332.25806451612897
1408.0335246077286,322.5806451612903
1409.0335484178195,296.7741935483871
1410.03357222791,274.19354838709677
1411.0335960380007,264.516129032258
1412.0336198480916,254.83870967741933
1413.0336436581822,235.48387096774195
1414.033667468273,229.0322580645161
1415.0336912783637,212.9032258064516
1416.0337150884543,174.19354838709677
1417.0337388985452,141.93548387096774
1418.0337627086358,135.48387096774192
1419.0337865187266,103.2258064516129
1420.0338103288173,61.29032258064516
1421.033834138908,3.225806451612903
1422.0338579489987,-41.935483870967744
1423.0338817590894,-93.54838709677418
1424.0339055691802,-141.93548387096774
1425.0339293792708,-193.54838709677418
1426.0339531893617,-232.25806451612905
1427.0339769994523,-290.32258064516134
1428.034000809543,-351.61290322580646
1429.0340246196338,-409.6774193548387
1430.0340484297244,-438.7096774193548
1431.0340722398153,-451.6129032258064
1432.0340960499059,-445.1612903225806
1433.0341198599965,-432.25806451612897
1434.0341436700874,-416.12903225806446
1435.034167480178,-403.22580645161287
1436.0341912902688,-403.22580645161287
1437.0342151003595,-396.77419354838713
1438.03423891045,-406.4516129032258
1439.034262720541,-409.6774193548387
1440.0342865306316,-403.22580645161287
1441.0343103407224,-374.1935483870967
1442.034334150813,-335.48387096774195
1443.0343579609037,-293.54838709677415
1444.0343817709945,-261.2903225806452
1445.0344055810851,-229.0322580645161
1446.034429391176,-167.74193548387098
1447.0344532012666,-106.4516129032258
1448.0344770113572,-58.06451612903226
1449.034500821448,-38.70967741935483
1450.0345246315387,-35.483870967741936
1451.0345484416296,-48.387096774193544
1452.0345722517202,-61.29032258064516
1453.0345960618108,-74.19354838709677
1454.0346198719017,-87.09677419354838
1455.0346436819923,-109.6774193548387
1456.0346674920831,-112.9032258064516
1457.0346913021738,-87.09677419354838
1458.0347151122644,-51.61290322580645
1459.0347389223552,-12.903225806451612
1460.0347627324459,48.387096774193544
1461.0347865425367,93.54838709677418
1462.0348103526273,96.77419354838709
1463.034834162718,61.29032258064516
1464.0348579728088,-6.451612903225806
1465.0348817828994,-58.06451612903226
1466.0349055929903,-70.96774193548387
1467.034929403081,-64.51612903225806
1468.0349532131718,-58.06451612903226
1469.0349770232624,-67.74193548387096
1470.035000833353,-61.29032258064516
1471.0350246434439,-45.16129032258064
1472.0350484535345,-35.483870967741936
1473.0350722636254,-12.903225806451612
1474.035096073716,3.225806451612903
1475.0351198838066,19.354838709677416
1476.0351436938975,25.806451612903224
1477.035167503988,-3.225806451612903
1478.035191314079,-22.58064516129032
1479.0352151241696,-25.806451612903224
1480.0352389342602,-35.483870967741936
1481.035262744351,-32.25806451612903
1482.0352865544417,-35.483870967741936
1483.0353103645325,-35.483870967741936
1484.0353341746231,-38.70967741935483
1485.0353579847138,-45.16129032258064
1486.0353817948046,-45.16129032258064
1487.0354056048952,-6.451612903225806
1488.035429414986,16.129032258064516
1489.0354532250767,25.806451612903224
1490.0354770351673,48.387096774193544
1491.0355008452582,58.06451612903226
1492.0355246553488,48.387096774193544
1493.0355484654397,45.16129032258064
1494.0355722755303,35.483870967741936
1495.035596085621,22.58064516129032
1496.0356198957118,12.903225806451612
1497.0356437058024,-6.451612903225806
1498.0356675158932,-29.03225806451613
1499.0356913259839,-41.935483870967744
1500.0357151360745,-35.483870967741936
1501.0357389461653,-9.677419354838708
1502.035762756256,-3.225806451612903
1503.0357865663468,22.58064516129032
1504.0358103764374,41.935483870967744
1505.035834186528,67.74193548387096
1506.035857996619,122.58064516129032
1507.0358818067095,151.61290322580646
1508.0359056168004,148.38709677419354
1509.035929426891,161.29032258064515
1510.0359532369816,196.7741935483871
1511.0359770470725,219.3548387096774
1512.0360008571631,216.12903225806448
1513.036024667254,199.99999999999997
1514.0360484773446,203.2258064516129
1515.0360722874354,190.32258064516128
1516.036096097526,177.41935483870967
1517.0361199076167,161.29032258064515
1518.0361437177075,161.29032258064515
1519.0361675277982,158.06451612903226
1520.036191337889,164.51612903225805
1521.0362151479796,174.19354838709677
1522.0362389580703,158.06451612903226
1523.0362627681611,138.70967741935482
1524.0362865782517,119.35483870967742
1525.0363103883426,103.2258064516129
1526.0363341984332,109.6774193548387
1527.0363580085238,138.70967741935482
1528.0363818186147,174.19354838709677
1529.0364056287053,193.54838709677418
1530.0364294387962,209.6774193548387
1531.0364532488868,216.12903225806448
1532.0364770589774,196.7741935483871
1533.0365008690683,174.19354838709677
1534.036524679159,158.06451612903226
1535.0365484892498,132.258064516129
1536.0365722993404,112.9032258064516
1537.036596109431,106.4516129032258
1538.0366199195219,106.4516129032258
1539.0366437296125,99.99999999999999
1540.0366675397033,129.03225806451613
1541.036691349794,154.83870967741933
1542.0367151598846,132.258064516129
1543.0367389699754,129.03225806451613
1544.036762780066,132.258064516129
1545.036786590157,122.58064516129032
1546.0368104002475,125.80645161290322
1547.0368342103382,164.51612903225805
1548.036858020429,193.54838709677418
1549.0368818305196,206.4516129032258
1550.0369056406105,196.7741935483871
1551.036929450701,190.32258064516128
1552.0369532607917,183.8709677419355
1553.0369770708826,167.74193548387098
1554.0370008809732,148.38709677419354
1555.037024691064,138.70967741935482
1556.0370485011547,141.93548387096774
1557.0370723112453,138.70967741935482
1558.0370961213362,129.03225806451613
1559.0371199314268,125.80645161290322
1560.0371437415176,132.258064516129
1561.0371675516083,145.16129032258067
1562.0371913616991,161.29032258064515
1563.0372151717897,174.19354838709677
1564.0372389818804,190.32258064516128
1565.0372627919712,222.5806451612903
1566.0372866020618,235.48387096774195
1567.0373104121527,232.25806451612905
1568.0373342222433,229.0322580645161
1569.037358032334,212.9032258064516
1570.0373818424248,216.12903225806448
1571.0374056525154,232.25806451612905
1572.0374294626063,196.7741935483871
1573.037453272697,154.83870967741933
1574.0374770827875,135.48387096774192
1575.0375008928784,138.70967741935482
1576.037524702969,141.93548387096774
1577.0375485130598,116.12903225806453
1578.0375723231505,99.99999999999999
1579.037596133241,103.2258064516129
1580.037619943332,109.6774193548387
1581.0376437534226,122.58064516129032
1582.0376675635134,154.83870967741933
1583.037691373604,164.51612903225805
1584.0377151836947,161.29032258064515
1585.0377389937855,158.06451612903226
1586.0377628038761,141.93548387096774
1587.037786613967,122.58064516129032
1588.0378104240576,93.54838709677418
1589.0378342341482,64.51612903225806
1590.037858044239,54.83870967741935
1591.0378818543297,58.06451612903226
1592.0379056644206,67.74193548387096
1593.0379294745112,77.41935483870967
1594.0379532846018,61.29032258064516
1595.0379770946927,29.03225806451613
1596.0380009047833,-6.451612903225806
1597.0380247148742,-22.58064516129032
1598.0380485249648,-12.903225806451612
1599.0380723350554,6.451612903225806
1600.0380961451463,35.483870967741936
1601.0381199552369,67.74193548387096
1602.0381437653277,96.77419354838709
1603.0381675754184,103.2258064516129
1604.038191385509,64.51612903225806
1605.0382151955998,0.0
1606.0382390056905,-64.51612903225806
1607.0382628157813,-103.2258064516129
1608.038286625872,-109.6774193548387
1609.0383104359628,-112.9032258064516
1610.0383342460534,-109.6774193548387
1611.038358056144,-106.4516129032258
1612.0383818662349,-106.4516129032258
1613.0384056763255,-112.9032258064516
1614.0384294864164,-106.4516129032258
1615.038453296507,-93.54838709677418
1616.0384771065976,-70.96774193548387
1617.0385009166885,-77.41935483870967
1618.038524726779,-90.32258064516128
1619.03854853687,-96.77419354838709
1620.0385723469606,-87.09677419354838
1621.0385961570512,-77.41935483870967
1622.038619967142,-64.51612903225806
1623.0386437772327,-51.61290322580645
1624.0386675873235,-38.70967741935483
1625.0386913974141,-32.25806451612903
1626.0387152075048,-38.70967741935483
1627.0387390175956,-64.51612903225806
1628.0387628276862,-93.54838709677418
1629.038786637777,-106.4516129032258
1630.0388104478677,-109.6774193548387
1631.0388342579583,-90.32258064516128
1632.0388580680492,-64.51612903225806
1633.0388818781398,-35.483870967741936
1634.0389056882307,-29.03225806451613
1635.0389294983213,-32.25806451612903
1636.038953308412,3.225806451612903
1637.0389771185028,83.87096774193549
1638.0390009285934,132.258064516129
1639.0390247386842,125.80645161290322
1640.0390485487749,64.51612903225806
1641.0390723588655,3.225806451612903
1642.0390961689563,-29.03225806451613
1643.039119979047,-38.70967741935483
1644.0391437891378,-41.935483870967744
1645.0391675992284,-38.70967741935483
1646.039191409319,-41.935483870967744
1647.03921521941,-48.387096774193544
1648.0392390295005,-45.16129032258064
1649.0392628395914,-58.06451612903226
1650.039286649682,-87.09677419354838
1651.0393104597727,-87.09677419354838
1652.0393342698635,-74.19354838709677
1653.0393580799541,-74.19354838709677
1654.039381890045,-80.64516129032258
1655.0394057001356,-67.74193548387096
1656.0394295102265,-64.51612903225806
1657.039453320317,-51.61290322580645
1658.0394771304077,-48.387096774193544
1659.0395009404986,-61.29032258064516
1660.0395247505892,-83.87096774193549
1661.03954856068,-83.87096774193549
1662.0395723707707,-70.96774193548387
1663.0395961808613,-64.51612903225806
1664.0396199909521,-64.51612903225806
1665.0396438010428,-64.51612903225806
1666.0396676111336,-38.70967741935483
1667.0396914212242,-29.03225806451613
1668.0397152313149,-51.61290322580645
1669.0397390414057,-35.483870967741936
1670.0397628514963,-16.129032258064516
1671.0397866615872,-9.677419354838708
1672.0398104716778,-9.677419354838708
1673.0398342817684,6.451612903225806
1674.0398580918593,12.903225806451612
1675.03988190195,-9.677419354838708
1676.0399057120408,-38.70967741935483
1677.0399295221314,-70.96774193548387
1678.039953332222,-90.32258064516128
1679.0399771423129,-87.09677419354838
1680.0400009524035,-77.41935483870967
1681.0400247624943,-83.87096774193549
1682.040048572585,-83.87096774193549
1683.0400723826756,-58.06451612903226
1684.0400961927664,-9.677419354838708
1685.040120002857,12.903225806451612
1686.040143812948,-9.677419354838708
1687.0401676230385,-54.83870967741935
1688.0401914331292,-77.41935483870967
1689.04021524322,-87.09677419354838
1690.0402390533106,-99.99999999999999
1691.0402628634015,-129.03225806451613
1692.0402866734921,-132.258064516129
1693.0403104835827,-138.70967741935482
1694.0403342936736,-125.80645161290322
1695.0403581037642,-87.09677419354838
1696.040381913855,-77.41935483870967
1697.0404057239457,-96.77419354838709
1698.0404295340363,-119.35483870967742
1699.0404533441272,-151.61290322580646
1700.0404771542178,-145.16129032258067
1701.0405009643086,-106.4516129032258
1702.0405247743993,-70.96774193548387
1703.0405485844901,-51.61290322580645
1704.0405723945807,-32.25806451612903
1705.0405962046714,-12.903225806451612
1706.0406200147622,16.129032258064516
1707.0406438248529,35.483870967741936
1708.0406676349437,38.70967741935483
1709.0406914450343,22.58064516129032
1710.040715255125,6.451612903225806
1711.0407390652158,0.0
1712.0407628753064,-25.806451612903224
1713.0407866853973,-48.387096774193544
1714.040810495488,-45.16129032258064
1715.0408343055785,-35.483870967741936
1716.0408581156694,-35.483870967741936
1717.04088192576,-51.61290322580645
1718.0409057358509,-61.29032258064516
1719.0409295459415,-61.29032258064516
1720.040953356032,-64.51612903225806
1721.040977166123,-41.935483870967744
1722.0410009762136,-6.451612903225806
1723.0410247863044,3.225806451612903
1724.041048596395,-3.225806451612903
1725.0410724064857,19.354838709677416
1726.0410962165765,58.06451612903226
1727.0411200266672,58.06451612903226
1728.041143836758,51.61290322580645
1729.0411676468486,51.61290322580645
1730.0411914569393,35.483870967741936
1731.04121526703,3.225806451612903
1732.0412390771207,-32.25806451612903
1733.0412628872116,-51.61290322580645
1734.0412866973022,-64.51612903225806
1735.0413105073928,-80.64516129032258
1736.0413343174837,-90.32258064516128
1737.0413581275743,-103.2258064516129
1738.0413819376652,-122.58064516129032
1739.0414057477558,-148.38709677419354
1740.0414295578464,-154.83870967741933
1741.0414533679373,-122.58064516129032
1742.041477178028,-87.09677419354838
1743.0415009881187,-64.51612903225806
1744.0415247982094,-45.16129032258064
1745.0415486083,-48.387096774193544
1746.0415724183908,-70.96774193548387
1747.0415962284815,-103.2258064516129
1748.0416200385723,-129.03225806451613
1749.041643848663,-154.83870967741933
1750.0416676587538,-170.96774193548387
1751.0416914688444,-174.19354838709677
1752.041715278935,-129.03225806451613
1753.041739089026,-77.41935483870967
1754.0417628991165,-35.483870967741936
1755.0417867092074,-22.58064516129032
1756.041810519298,-22.58064516129032
1757.0418343293886,-16.129032258064516
1758.0418581394795,-6.451612903225806
1759.04188194957,0.0
1760.041905759661,22.58064516129032
1761.0419295697516,41.935483870967744
1762.0419533798422,22.58064516129032
1763.041977189933,-35.483870967741936
1764.0420010000237,-74.19354838709677
1765.0420248101145,-54.83870967741935
1766.0420486202052,-25.806451612903224
1767.0420724302958,0.0
1768.0420962403866,-3.225806451612903
1769.0421200504773,3.225806451612903
1770.042143860568,16.129032258064516
1771.0421676706587,12.903225806451612
1772.0421914807494,9.677419354838708
1773.0422152908402,-12.903225806451612
1774.0422391009308,-41.935483870967744
1775.0422629110217,-64.51612903225806
1776.0422867211123,-77.41935483870967
1777.042310531203,-80.64516129032258
1778.0423343412938,-74.19354838709677
1779.0423581513844,-67.74193548387096
1780.0423819614753,-74.19354838709677
1781.0424057715659,-70.96774193548387
1782.0424295816565,-74.19354838709677
1783.0424533917474,-67.74193548387096
1784.042477201838,-61.29032258064516
1785.0425010119288,-54.83870967741935
1786.0425248220195,-45.16129032258064
1787.04254863211,-38.70967741935483
1788.042572442201,-38.70967741935483
1789.0425962522916,-38.70967741935483
1790.0426200623824,-16.129032258064516
1791.042643872473,29.03225806451613
1792.0426676825637,83.87096774193549
1793.0426914926545,141.93548387096774
1794.0427153027451,193.54838709677418
1795.042739112836,216.12903225806448
1796.0427629229266,229.0322580645161
1797.0427867330175,245.16129032258064
1798.042810543108,251.61290322580643
1799.0428343531987,261.2903225806452
1800.0428581632896,283.8709677419355
1801.0428819733802,322.5806451612903
1802.042905783471,354.83870967741933
1803.0429295935617,387.09677419354836
1804.0429534036523,403.22580645161287
1805.0429772137431,403.22580645161287
1806.0430010238338,390.3225806451613
1807.0430248339246,377.41935483870964
1808.0430486440152,345.1612903225806
1809.0430724541059,283.8709677419355
1810.0430962641967,209.6774193548387
1811.0431200742873,141.93548387096774
1812.0431438843782,77.41935483870967
1813.0431676944688,22.58064516129032
1814.0431915045594,-19.354838709677416
1815.0432153146503,-38.70967741935483
1816.043239124741,-54.83870967741935
1817.0432629348318,-87.09677419354838
1818.0432867449224,-129.03225806451613
1819.043310555013,-174.19354838709677
1820.0433343651039,-258.06451612903226
1821.0433581751945,-361.2903225806451
1822.0433819852854,-454.8387096774193
1823.043405795376,-538.7096774193549
1824.0434296054666,-600.0
1825.0434534155575,-600.0
1826.043477225648,-554.8387096774193
1827.043501035739,-509.67741935483866
1828.0435248458296,-490.3225806451613
1829.0435486559202,-483.8709677419355
1830.043572466011,-470.9677419354839
1831.0435962761017,-441.9354838709677
1832.0436200861925,-396.77419354838713
1833.0436438962831,-345.1612903225806
1834.0436677063738,-300.0
1835.0436915164646,-264.516129032258
1836.0437153265552,-219.3548387096774
1837.043739136646,-190.32258064516128
1838.0437629467367,-193.54838709677418
1839.0437867568276,-199.99999999999997
1840.0438105669182,-203.2258064516129
1841.0438343770088,-190.32258064516128
1842.0438581870997,-187.09677419354836
1843.0438819971903,-158.06451612903226
1844.0439058072811,-125.80645161290322
1845.0439296173718,-112.9032258064516
1846.0439534274624,-90.32258064516128
1847.0439772375532,-64.51612903225806
1848.0440010476439,-38.70967741935483
1849.0440248577347,-19.354838709677416
1850.0440486678253,-9.677419354838708
1851.044072477916,-9.677419354838708
1852.0440962880068,-12.903225806451612
1853.0441200980974,-25.806451612903224
1854.0441439081883,-29.03225806451613
1855.044167718279,-29.03225806451613
1856.0441915283695,-22.58064516129032
1857.0442153384604,-19.354838709677416
1858.044239148551,-22.58064516129032
1859.0442629586419,-9.677419354838708
1860.0442867687325,-3.225806451612903
1861.0443105788231,-12.903225806451612
1862.044334388914,-25.806451612903224
1863.0443581990046,-25.806451612903224
1864.0443820090954,-16.129032258064516
1865.044405819186,3.225806451612903
1866.0444296292767,12.903225806451612
1867.0444534393675,6.451612903225806
1868.0444772494582,9.677419354838708
1869.044501059549,22.58064516129032
1870.0445248696396,45.16129032258064
1871.0445486797303,70.96774193548387
1872.0445724898211,93.54838709677418
1873.0445962999117,77.41935483870967
1874.0446201100026,77.41935483870967
1875.0446439200932,93.54838709677418
1876.0446677301838,109.6774193548387
1877.0446915402747,99.99999999999999
1878.0447153503653,74.19354838709677
1879.0447391604562,61.29032258064516
1880.0447629705468,61.29032258064516
1881.0447867806374,38.70967741935483
1882.0448105907283,6.451612903225806
1883.044834400819,0.0
1884.0448582109098,-9.677419354838708
1885.0448820210004,-19.354838709677416
1886.0449058310912,-35.483870967741936
1887.0449296411819,-48.387096774193544
1888.0449534512725,-61.29032258064516
1889.0449772613633,-51.61290322580645
1890.045001071454,-41.935483870967744
1891.0450248815448,-48.387096774193544
1892.0450486916354,-51.61290322580645
1893.045072501726,-61.29032258064516
1894.045096311817,-58.06451612903226
1895.0451201219075,-38.70967741935483
1896.0451439319984,-3.225806451612903
1897.045167742089,38.70967741935483
1898.0451915521796,38.70967741935483
1899.0452153622705,32.25806451612903
1900.045239172361,58.06451612903226
1901.045262982452,93.54838709677418
1902.0452867925426,125.80645161290322
1903.0453106026332,148.38709677419354
1904.045334412724,145.16129032258067
1905.0453582228147,138.70967741935482
1906.0453820329055,135.48387096774192
1907.0454058429962,109.6774193548387
1908.0454296530868,77.41935483870967
1909.0454534631776,58.06451612903226
1910.0454772732683,51.61290322580645
1911.045501083359,58.06451612903226
1912.0455248934497,99.99999999999999
1913.0455487035404,154.83870967741933
1914.0455725136312,190.32258064516128
1915.0455963237218,206.4516129032258
1916.0456201338127,206.4516129032258
1917.0456439439033,209.6774193548387
1918.045667753994,216.12903225806448
1919.0456915640848,219.3548387096774
1920.0457153741754,219.3548387096774
1921.0457391842663,229.0322580645161
1922.045762994357,248.38709677419354
1923.0457868044475,274.19354838709677
1924.0458106145384,290.32258064516134
1925.045834424629,287.0967741935484
1926.0458582347198,267.7419354838709
1927.0458820448105,245.16129032258064
1928.045905854901,238.70967741935485
1929.045929664992,245.16129032258064
1930.0459534750826,245.16129032258064
1931.0459772851734,238.70967741935485
1932.046001095264,225.8064516129032
1933.046024905355,216.12903225806448
1934.0460487154455,193.54838709677418
1935.0460725255361,170.96774193548387
1936.046096335627,158.06451612903226
1937.0461201457176,141.93548387096774
1938.0461439558085,132.258064516129
1939.046167765899,161.29032258064515
1940.0461915759897,222.5806451612903
1941.0462153860806,277.41935483870964
1942.0462391961712,277.41935483870964
1943.046263006262,261.2903225806452
1944.0462868163527,241.93548387096774
1945.0463106264433,219.3548387096774
1946.0463344365342,203.2258064516129
1947.0463582466248,196.7741935483871
1948.0463820567156,174.19354838709677
1949.0464058668063,148.38709677419354
1950.0464296768969,141.93548387096774
1951.0464534869877,141.93548387096774
1952.0464772970784,141.93548387096774
1953.0465011071692,154.83870967741933
1954.0465249172598,161.29032258064515
1955.0465487273505,164.51612903225805
1956.0465725374413,154.83870967741933
1957.046596347532,148.38709677419354
1958.0466201576228,161.29032258064515
1959.0466439677134,187.09677419354836
1960.046667777804,196.7741935483871
1961.0466915878949,216.12903225806448
1962.0467153979855,245.16129032258064
1963.0467392080764,258.06451612903226
1964.046763018167,251.61290322580643
1965.0467868282576,248.38709677419354
1966.0468106383485,222.5806451612903
1967.046834448439,190.32258064516128
1968.04685825853,174.19354838709677
1969.0468820686206,161.29032258064515
1970.0469058787112,148.38709677419354
1971.046929688802,129.03225806451613
1972.0469534988927,106.4516129032258
1973.0469773089835,103.2258064516129
1974.0470011190741,109.6774193548387
1975.0470249291648,112.9032258064516
1976.0470487392556,106.4516129032258
1977.0470725493462,83.87096774193549
1978.047096359437,58.06451612903226
1979.0471201695277,58.06451612903226
1980.0471439796186,41.935483870967744
1981.0471677897092,16.129032258064516
1982.0471915997998,-6.451612903225806
1983.0472154098907,-3.225806451612903
1984.0472392199813,-6.451612903225806
1985.0472630300721,0.0
1986.0472868401628,19.354838709677416
1987.0473106502534,25.806451612903224
1988.0473344603442,29.03225806451613
1989.0473582704349,32.25806451612903
1990.0473820805257,45.16129032258064
1991.0474058906163,54.83870967741935
1992.047429700707,51.61290322580645
1993.0474535107978,19.354838709677416
1994.0474773208884,0.0
1995.0475011309793,-9.677419354838708
1996.04752494107,-3.225806451612903
1997.0475487511605,6.451612903225806
1998.0475725612514,35.483870967741936
1999.047596371342,54.83870967741935
2000.0476201814329,64.51612903225806
2001.0476439915235,74.19354838709677
2002.0476678016141,80.64516129032258
2003.047691611705,67.74193548387096
2004.0477154217956,35.483870967741936
2005.0477392318865,-22.58064516129032
2006.047763041977,-77.41935483870967
2007.0477868520677,-116.12903225806453
2008.0478106621586,-138.70967741935482
2009.0478344722492,-138.70967741935482
2010.04785828234,-109.6774193548387
2011.0478820924307,-77.41935483870967
2012.0479059025213,-48.387096774193544
2013.0479297126121,-38.70967741935483
2014.0479535227028,-45.16129032258064
2015.0479773327936,-35.483870967741936
2016.0480011428842,-9.677419354838708
2017.0480249529749,-9.677419354838708
2018.0480487630657,-45.16129032258064
2019.0480725731563,-87.09677419354838
2020.0480963832472,-106.4516129032258
2021.0481201933378,-109.6774193548387
2022.0481440034284,-99.99999999999999
2023.0481678135193,-87.09677419354838
2024.04819162361,-87.09677419354838
2025.0482154337008,-74.19354838709677
2026.0482392437914,-58.06451612903226
2027.0482630538822,-38.70967741935483
2028.0482868639729,-22.58064516129032
2029.0483106740635,-12.903225806451612
2030.0483344841543,-9.677419354838708
2031.048358294245,0.0
2032.0483821043358,3.225806451612903
2033.0484059144264,-12.903225806451612
2034.048429724517,-41.935483870967744
2035.048453534608,-70.96774193548387
2036.0484773446985,-77.41935483870967
2037.0485011547894,-87.09677419354838
2038.04852496488,-112.9032258064516
2039.0485487749706,-138.70967741935482
2040.0485725850615,-138.70967741935482
2041.0485963951521,-125.80645161290322
2042.048620205243,-112.9032258064516
2043.0486440153336,-93.54838709677418
2044.0486678254242,-83.87096774193549
2045.048691635515,-67.74193548387096
2046.0487154456057,-58.06451612903226
2047.0487392556965,-58.06451612903226
2048.048763065787,-54.83870967741935
2049.048786875878,-41.935483870967744
2050.0488106859684,-32.25806451612903
2051.0488344960595,-38.70967741935483
2052.04885830615,-58.06451612903226
2053.0488821162407,-61.29032258064516
2054.0489059263314,-61.29032258064516
2055.048929736422,-64.51612903225806
2056.048953546513,-48.387096774193544
2057.0489773566037,-48.387096774193544
2058.0490011666943,-51.61290322580645
2059.049024976785,-54.83870967741935
2060.0490487868756,-32.25806451612903
2061.0490725969667,-9.677419354838708
2062.0490964070573,-35.483870967741936
2063.049120217148,-70.96774193548387
2064.0491440272385,-106.4516129032258
2065.049167837329,-148.38709677419354
2066.0491916474202,-180.64516129032256
2067.049215457511,-183.8709677419355
2068.0492392676015,-154.83870967741933
2069.049263077692,-112.9032258064516
2070.0492868877827,-80.64516129032258
2071.049310697874,-61.29032258064516
2072.0493345079644,-64.51612903225806
2073.049358318055,-74.19354838709677
2074.0493821281457,-83.87096774193549
2075.0494059382363,-80.64516129032258
2076.0494297483274,-93.54838709677418
2077.049453558418,-112.9032258064516
2078.0494773685086,-138.70967741935482
2079.0495011785993,-151.61290322580646
2080.04952498869,-138.70967741935482
2081.049548798781,-87.09677419354838
2082.0495726088716,-35.483870967741936
2083.049596418962,-29.03225806451613
2084.049620229053,-35.483870967741936
2085.0496440391435,-35.483870967741936
2086.0496678492345,-22.58064516129032
2087.049691659325,-16.129032258064516
2088.049715469416,-12.903225806451612
2089.0497392795064,-35.483870967741936
2090.049763089597,-58.06451612903226
2091.049786899688,-77.41935483870967
2092.0498107097787,-67.74193548387096
2093.0498345198694,-41.935483870967744
2094.04985832996,-29.03225806451613
2095.049882140051,-19.354838709677416
2096.0499059501417,-19.354838709677416
2097.0499297602323,-29.03225806451613
2098.049953570323,-38.70967741935483
2099.0499773804136,-29.03225806451613
2100.0500011905046,-25.806451612903224
2101.0500250005953,-41.935483870967744
2102.050048810686,-64.51612903225806
2103.0500726207765,-61.29032258064516
2104.050096430867,-32.25806451612903
2105.050120240958,-9.677419354838708
2106.050144051049,19.354838709677416
2107.0501678611395,29.03225806451613
2108.05019167123,29.03225806451613
2109.0502154813207,9.677419354838708
2110.050239291412,-9.677419354838708
2111.0502631015024,-48.387096774193544
2112.050286911593,-67.74193548387096
2113.0503107216837,-80.64516129032258
2114.0503345317743,-77.41935483870967
2115.0503583418654,-54.83870967741935
2116.050382151956,-25.806451612903224
2117.0504059620466,0.0
2118.0504297721372,29.03225806451613
2119.050453582228,64.51612903225806
2120.050477392319,80.64516129032258
2121.0505012024096,80.64516129032258
2122.0505250125,77.41935483870967
2123.050548822591,80.64516129032258
2124.0505726326815,67.74193548387096
2125.0505964427725,35.483870967741936
2126.050620252863,0.0
2127.050644062954,-38.70967741935483
2128.0506678730444,-74.19354838709677
2129.050691683135,-103.2258064516129
2130.050715493226,-116.12903225806453
2131.0507393033167,-122.58064516129032
2132.0507631134074,-129.03225806451613
2133.050786923498,-135.48387096774192
2134.0508107335886,-151.61290322580646
2135.0508345436797,-167.74193548387098
2136.0508583537703,-167.74193548387098
2137.050882163861,-148.38709677419354
2138.0509059739516,-129.03225806451613
2139.050929784042,-135.48387096774192
2140.0509535941333,-145.16129032258067
2141.050977404224,-158.06451612903226
2142.0510012143145,-174.19354838709677
2143.051025024405,-180.64516129032256
2144.0510488344958,-177.41935483870967
2145.051072644587,-148.38709677419354
2146.0510964546775,-116.12903225806453
2147.051120264768,-93.54838709677418
2148.0511440748587,-122.58064516129032
2149.0511678849493,-154.83870967741933
2150.0511916950404,-158.06451612903226
2151.051215505131,-116.12903225806453
2152.0512393152217,-67.74193548387096
2153.0512631253123,-64.51612903225806
2154.051286935403,-70.96774193548387
2155.051310745494,-64.51612903225806
2156.0513345555846,-51.61290322580645
2157.0513583656752,-45.16129032258064
2158.051382175766,-51.61290322580645
2159.0514059858565,-77.41935483870967
2160.0514297959476,-103.2258064516129
2161.051453606038,-119.35483870967742
2162.051477416129,-129.03225806451613
2163.0515012262194,-132.258064516129
2164.05152503631,-138.70967741935482
2165.051548846401,-122.58064516129032
2166.0515726564918,-99.99999999999999
2167.0515964665824,-77.41935483870967
2168.051620276673,-35.483870967741936
2169.0516440867636,6.451612903225806
2170.0516678968547,38.70967741935483
2171.0516917069453,64.51612903225806
2172.051715517036,74.19354838709677
2173.0517393271266,83.87096774193549
2174.051763137217,87.09677419354838
2175.0517869473083,80.64516129032258
2176.051810757399,80.64516129032258
2177.0518345674895,96.77419354838709
2178.05185837758,109.6774193548387
2179.051882187671,103.2258064516129
2180.051905997762,103.2258064516129
2181.0519298078525,103.2258064516129
2182.051953617943,112.9032258064516
2183.0519774280338,119.35483870967742
2184.0520012381244,116.12903225806453
2185.0520250482155,116.12903225806453
2186.052048858306,174.19354838709677
2187.0520726683967,225.8064516129032
2188.0520964784873,277.41935483870964
2189.0521202885784,316.1290322580645
2190.052144098669,345.1612903225806
2191.0521679087597,348.38709677419354
2192.0521917188503,351.61290322580646
2193.052215528941,354.83870967741933
2194.052239339032,377.41935483870964
2195.0522631491226,409.6774193548387
2196.0522869592132,451.6129032258064
2197.052310769304,464.5161290322581
2198.0523345793945,448.3870967741935
2199.0523583894856,416.12903225806446
2200.052382199576,390.3225806451613
2201.052406009667,354.83870967741933
2202.0524298197574,287.0967741935484
2203.052453629848,229.0322580645161
2204.052477439939,180.64516129032256
2205.0525012500298,132.258064516129
2206.0525250601204,61.29032258064516
2207.052548870211,-25.806451612903224
2208.0525726803016,-67.74193548387096
2209.0525964903927,-106.4516129032258
2210.0526203004833,-167.74193548387098
2211.052644110574,-261.2903225806452
2212.0526679206646,-335.48387096774195
2213.052691730755,-380.64516129032256
2214.0527155408463,-454.8387096774193
2215.052739350937,-564.516129032258
2216.0527631610275,-661.2903225806451
2217.052786971118,-693.5483870967741
2218.052810781209,-664.5161290322579
2219.0528345913,-570.9677419354838
2220.0528584013905,-477.4193548387097
2221.052882211481,-416.12903225806446
2222.0529060215717,-396.77419354838713
2223.0529298316624,-396.77419354838713
2224.0529536417534,-374.1935483870967
2225.052977451844,-322.5806451612903
2226.0530012619347,-274.19354838709677
2227.0530250720253,-254.83870967741933
2228.053048882116,-254.83870967741933
2229.053072692207,-248.38709677419354
2230.0530965022976,-212.9032258064516
2231.0531203123883,-180.64516129032256
2232.053144122479,-193.54838709677418
2233.0531679325695,-225.8064516129032
2234.0531917426606,-245.16129032258064
2235.053215552751,-261.2903225806452
2236.053239362842,-274.19354838709677
2237.0532631729325,-296.7741935483871
2238.053286983023,-283.8709677419355
2239.053310793114,-229.0322580645161
2240.053334603205,-161.29032258064515
2241.0533584132954,-103.2258064516129
2242.053382223386,-61.29032258064516
2243.0534060334767,-38.70967741935483
2244.0534298435678,-38.70967741935483
2245.0534536536584,-51.61290322580645
2246.053477463749,-74.19354838709677
2247.0535012738396,-77.41935483870967
2248.0535250839303,-83.87096774193549
2249.0535488940213,-106.4516129032258
2250.053572704112,-106.4516129032258
2251.0535965142026,-93.54838709677418
2252.053620324293,-77.41935483870967
2253.053644134384,-48.387096774193544
2254.053667944475,-16.129032258064516
2255.0536917545655,-9.677419354838708
2256.053715564656,-12.903225806451612
2257.053739374747,-19.354838709677416
2258.0537631848374,-12.903225806451612
2259.0537869949285,6.451612903225806
2260.053810805019,22.58064516129032
2261.0538346151097,38.70967741935483
2262.0538584252004,35.483870967741936
2263.053882235291,38.70967741935483
2264.053906045382,41.935483870967744
2265.0539298554727,35.483870967741936
2266.0539536655633,9.677419354838708
2267.053977475654,-16.129032258064516
2268.0540012857446,-25.806451612903224
2269.0540250958356,-22.58064516129032
2270.0540489059263,-19.354838709677416
2271.054072716017,0.0
2272.0540965261075,12.903225806451612
2273.054120336198,16.129032258064516
2274.054144146289,19.354838709677416
2275.05416795638,25.806451612903224
2276.0541917664705,38.70967741935483
2277.054215576561,48.387096774193544
2278.0542393866517,54.83870967741935
2279.054263196743,58.06451612903226
2280.0542870068334,64.51612903225806
2281.054310816924,70.96774193548387
2282.0543346270147,83.87096774193549
2283.0543584371057,96.77419354838709
2284.0543822471964,109.6774193548387
2285.054406057287,116.12903225806453
2286.0544298673776,122.58064516129032
2287.0544536774682,154.83870967741933
2288.0544774875593,167.74193548387098
2289.05450129765,161.29032258064515
2290.0545251077406,167.74193548387098
2291.054548917831,158.06451612903226
2292.054572727922,154.83870967741933
2293.054596538013,132.258064516129
2294.0546203481035,90.32258064516128
2295.054644158194,58.06451612903226
2296.054667968285,38.70967741935483
2297.0546917783754,35.483870967741936
2298.0547155884665,61.29032258064516
2299.054739398557,109.6774193548387
2300.0547632086477,164.51612903225805
2301.0547870187384,212.9032258064516
2302.054810828829,229.0322580645161
2303.05483463892,222.5806451612903
2304.0548584490107,190.32258064516128
2305.0548822591013,119.35483870967742
2306.054906069192,48.387096774193544
2307.0549298792826,19.354838709677416
2308.0549536893736,25.806451612903224
2309.0549774994643,38.70967741935483
2310.055001309555,58.06451612903226
2311.0550251196455,90.32258064516128
2312.055048929736,90.32258064516128
2313.055072739827,64.51612903225806
2314.055096549918,61.29032258064516
2315.0551203600085,58.06451612903226
2316.055144170099,64.51612903225806
2317.0551679801897,80.64516129032258
2318.055191790281,99.99999999999999
2319.0552156003714,122.58064516129032
2320.055239410462,135.48387096774192
2321.0552632205527,129.03225806451613
2322.0552870306433,122.58064516129032
2323.0553108407344,129.03225806451613
2324.055334650825,141.93548387096774
2325.0553584609156,154.83870967741933
2326.0553822710062,161.29032258064515
2327.055406081097,161.29032258064515
2328.055429891188,177.41935483870967
2329.0554537012786,183.8709677419355
2330.055477511369,177.41935483870967
2331.05550132146,164.51612903225805
2332.0555251315504,158.06451612903226
2333.0555489416415,174.19354838709677
2334.055572751732,183.8709677419355
2335.0555965618228,203.2258064516129
2336.0556203719134,203.2258064516129
2337.055644182004,180.64516129032256
2338.055667992095,164.51612903225805
2339.0556918021857,138.70967741935482
2340.0557156122763,109.6774193548387
2341.055739422367,93.54838709677418
2342.0557632324576,87.09677419354838
2343.0557870425487,106.4516129032258
2344.0558108526393,145.16129032258067
2345.05583466273,167.74193548387098
2346.0558584728205,164.51612903225805
2347.055882282911,174.19354838709677
2348.0559060930022,187.09677419354836
2349.055929903093,196.7741935483871
2350.0559537131835,190.32258064516128
2351.055977523274,180.64516129032256
2352.0560013333647,180.64516129032256
2353.056025143456,203.2258064516129
2354.0560489535465,222.5806451612903
2355.056072763637,232.25806451612905
2356.0560965737277,212.9032258064516
2357.0561203838183,164.51612903225805
2358.0561441939094,129.03225806451613
2359.056168004,122.58064516129032
2360.0561918140907,141.93548387096774
2361.0562156241813,193.54838709677418
2362.056239434272,222.5806451612903
2363.056263244363,225.8064516129032
2364.0562870544536,183.8709677419355
2365.0563108645442,132.258064516129
2366.056334674635,112.9032258064516
2367.0563584847255,96.77419354838709
2368.0563822948166,90.32258064516128
2369.056406104907,80.64516129032258
2370.056429914998,61.29032258064516
2371.0564537250884,64.51612903225806
2372.056477535179,80.64516129032258
2373.05650134527,87.09677419354838
2374.0565251553608,77.41935483870967
2375.0565489654514,74.19354838709677
2376.056572775542,67.74193548387096
2377.056596585633,45.16129032258064
2378.0566203957237,25.806451612903224
2379.0566442058143,25.806451612903224
2380.056668015905,25.806451612903224
2381.0566918259956,25.806451612903224
2382.0567156360867,25.806451612903224
2383.0567394461773,16.129032258064516
2384.056763256268,16.129032258064516
2385.0567870663585,32.25806451612903
2386.056810876449,25.806451612903224
2387.0568346865402,9.677419354838708
2388.056858496631,0.0
2389.0568823067215,-32.25806451612903
2390.056906116812,-67.74193548387096
2391.0569299269027,-83.87096774193549
2392.056953736994,-96.77419354838709
2393.0569775470844,-125.80645161290322
2394.057001357175,-145.16129032258067
2395.0570251672657,-138.70967741935482
2396.0570489773563,-119.35483870967742
2397.0570727874474,-109.6774193548387
2398.057096597538,-119.35483870967742
2399.0571204076286,-122.58064516129032
2400.0571442177193,-112.9032258064516
2401.05716802781,-103.2258064516129
2402.057191837901,-96.77419354838709
2403.0572156479916,-74.19354838709677
2404.057239458082,-67.74193548387096
2405.057263268173,-87.09677419354838
2406.0572870782635,-103.2258064516129
2407.0573108883546,-116.12903225806453
2408.057334698445,-116.12903225806453
2409.057358508536,-109.6774193548387
2410.0573823186264,-87.09677419354838
2411.057406128717,-51.61290322580645
2412.057429938808,-9.677419354838708
2413.0574537488988,16.129032258064516
2414.0574775589894,-12.903225806451612
2415.05750136908,-38.70967741935483
2416.0575251791706,-67.74193548387096
2417.0575489892617,-83.87096774193549
2418.0575727993523,-99.99999999999999
2419.057596609443,-109.6774193548387
2420.0576204195336,-103.2258064516129
2421.057644229624,-93.54838709677418
2422.0576680397153,-83.87096774193549
2423.057691849806,-61.29032258064516
2424.0577156598965,-32.25806451612903
2425.057739469987,-22.58064516129032
2426.057763280078,-12.903225806451612
2427.057787090169,12.903225806451612
2428.0578109002595,35.483870967741936
2429.05783471035,48.387096774193544
2430.0578585204407,41.935483870967744
2431.0578823305314,38.70967741935483
2432.0579061406224,6.451612903225806
2433.057929950713,-67.74193548387096
2434.0579537608037,-122.58064516129032
2435.0579775708943,-129.03225806451613
2436.058001380985,-116.12903225806453
2437.058025191076,-109.6774193548387
2438.0580490011666,-129.03225806451613
2439.0580728112573,-151.61290322580646
2440.058096621348,-135.48387096774192
2441.0581204314385,-103.2258064516129
2442.0581442415296,-64.51612903225806
2443.05816805162,-25.806451612903224
2444.058191861711,-12.903225806451612
2445.0582156718015,-32.25806451612903
2446.058239481892,-54.83870967741935
2447.058263291983,-67.74193548387096
2448.058287102074,-70.96774193548387
2449.0583109121644,-58.06451612903226
2450.058334722255,-35.483870967741936
2451.0583585323457,-32.25806451612903
2452.0583823424367,-45.16129032258064
2453.0584061525274,-61.29032258064516
2454.058429962618,-77.41935483870967
2455.0584537727086,-83.87096774193549
2456.0584775827992,-74.19354838709677
2457.0585013928903,-61.29032258064516
2458.058525202981,-45.16129032258064
2459.0585490130716,-25.806451612903224
2460.058572823162,-16.129032258064516
2461.058596633253,-16.129032258064516
2462.058620443344,-32.25806451612903
2463.0586442534345,-51.61290322580645
2464.058668063525,-67.74193548387096
2465.0586918736158,-99.99999999999999
2466.0587156837064,-116.12903225806453
2467.0587394937975,-119.35483870967742
2468.058763303888,-125.80645161290322
2469.0587871139787,-119.35483870967742
2470.0588109240693,-106.4516129032258
2471.0588347341604,-90.32258064516128
2472.058858544251,-74.19354838709677
2473.0588823543417,-70.96774193548387
2474.0589061644323,-58.06451612903226
2475.058929974523,-29.03225806451613
2476.058953784614,-19.354838709677416
2477.0589775947046,-3.225806451612903
2478.0590014047953,-3.225806451612903
2479.059025214886,-25.806451612903224
2480.0590490249765,-45.16129032258064
2481.0590728350676,-64.51612903225806
2482.059096645158,-77.41935483870967
2483.059120455249,-67.74193548387096
2484.0591442653395,-38.70967741935483
2485.05916807543,0.0
2486.059191885521,19.354838709677416
2487.059215695612,25.806451612903224
2488.0592395057024,6.451612903225806
2489.059263315793,-19.354838709677416
2490.0592871258837,-51.61290322580645
2491.0593109359747,-67.74193548387096
2492.0593347460654,-61.29032258064516
2493.059358556156,-29.03225806451613
2494.0593823662466,3.225806451612903
2495.0594061763372,6.451612903225806
2496.0594299864283,22.58064516129032
2497.059453796519,38.70967741935483
2498.0594776066096,51.61290322580645
2499.0595014167,51.61290322580645
2500.059525226791,32.25806451612903
2501.059549036882,12.903225806451612
2502.0595728469725,9.677419354838708
2503.059596657063,22.58064516129032
2504.0596204671538,29.03225806451613
2505.0596442772444,16.129032258064516
2506.0596680873355,9.677419354838708
2507.059691897426,3.225806451612903
2508.0597157075167,19.354838709677416
2509.0597395176073,38.70967741935483
2510.059763327698,41.935483870967744
2511.059787137789,19.354838709677416
2512.0598109478797,-12.903225806451612
2513.0598347579703,-32.25806451612903
2514.059858568061,-35.483870967741936
2515.0598823781515,-58.06451612903226
2516.0599061882426,-67.74193548387096
2517.0599299983332,-93.54838709677418
2518.059953808424,-119.35483870967742
2519.0599776185145,-129.03225806451613
2520.060001428605,-135.48387096774192
2521.060025238696,-145.16129032258067
2522.060049048787,-151.61290322580646
2523.0600728588774,-145.16129032258067
2524.060096668968,-122.58064516129032
2525.0601204790587,-112.9032258064516
2526.06014428915,-119.35483870967742
2527.0601680992404,-141.93548387096774
2528.060191909331,-138.70967741935482
2529.0602157194216,-122.58064516129032
2530.0602395295123,-135.48387096774192
2531.0602633396034,-148.38709677419354
2532.060287149694,-135.48387096774192
2533.0603109597846,-103.2258064516129
2534.060334769875,-58.06451612903226
2535.060358579966,-6.451612903225806
2536.060382390057,19.354838709677416
2537.0604062001476,22.58064516129032
2538.060430010238,3.225806451612903
2539.060453820329,-19.354838709677416
2540.0604776304194,-51.61290322580645
2541.0605014405105,-67.74193548387096
2542.060525250601,-61.29032258064516
2543.0605490606918,-35.483870967741936
2544.0605728707824,-6.451612903225806
2545.060596680873,12.903225806451612
2546.060620490964,6.451612903225806
2547.0606443010547,-6.451612903225806
2548.0606681111453,-19.354838709677416
2549.060691921236,-19.354838709677416
2550.0607157313266,-25.806451612903224
2551.0607395414177,-32.25806451612903
2552.0607633515083,-29.03225806451613
2553.060787161599,-22.58064516129032
2554.0608109716895,-12.903225806451612
2555.06083478178,-3.225806451612903
2556.0608585918712,0.0
2557.060882401962,-3.225806451612903
2558.0609062120525,-6.451612903225806
2559.060930022143,-22.58064516129032
2560.060953832234,-22.58064516129032
2561.060977642325,-6.451612903225806
2562.0610014524154,-16.129032258064516
2563.061025262506,-32.25806451612903
2564.0610490725967,-48.387096774193544
2565.0610728826878,-45.16129032258064
2566.0610966927784,-32.25806451612903
2567.061120502869,-41.935483870967744
2568.0611443129596,-48.387096774193544
2569.0611681230503,-48.387096774193544
2570.0611919331413,-32.25806451612903
2571.061215743232,-29.03225806451613
2572.0612395533226,-32.25806451612903
2573.061263363413,-16.129032258064516
2574.061287173504,29.03225806451613
2575.061310983595,70.96774193548387
2576.0613347936855,138.70967741935482
2577.061358603776,206.4516129032258
2578.061382413867,251.61290322580643
2579.0614062239574,283.8709677419355
2580.0614300340485,329.0322580645161
2581.061453844139,377.41935483870964
2582.0614776542297,432.25806451612897
2583.0615014643204,477.4193548387097
2584.061525274411,512.9032258064516
2585.061549084502,548.3870967741935
2586.0615728945927,554.8387096774193
2587.0615967046833,516.1290322580645
2588.061620514774,425.8064516129032
2589.0616443248646,351.61290322580646
2590.0616681349557,296.7741935483871
2591.0616919450463,254.83870967741933
2592.061715755137,245.16129032258064
2593.0617395652275,222.5806451612903
2594.061763375318,177.41935483870967
2595.0617871854092,103.2258064516129
2596.0618109955,45.16129032258064
2597.0618348055905,-3.225806451612903
2598.061858615681,-45.16129032258064
2599.0618824257717,-67.74193548387096
2600.061906235863,-106.4516129032258
2601.0619300459534,-138.70967741935482
2602.061953856044,-187.09677419354836
2603.0619776661347,-229.0322580645161
2604.0620014762253,-280.6451612903225
2605.0620252863164,-329.0322580645161
2606.062049096407,-367.741935483871
2607.0620729064976,-399.99999999999994
2608.0620967165883,-419.3548387096774
2609.062120526679,-438.7096774193548
2610.06214433677,-429.0322580645161
2611.0621681468606,-429.0322580645161
2612.062191956951,-429.0322580645161
2613.062215767042,-399.99999999999994
2614.0622395771325,-383.8709677419355
2615.0622633872235,-358.06451612903226
2616.062287197314,-341.93548387096774
2617.062311007405,-335.48387096774195
2618.0623348174954,-306.4516129032258
2619.062358627586,-274.19354838709677
2620.062382437677,-248.38709677419354
2621.0624062477677,-216.12903225806448
2622.0624300578584,-174.19354838709677
2623.062453867949,-122.58064516129032
2624.0624776780396,-93.54838709677418
2625.0625014881307,-83.87096774193549
2626.0625252982213,-70.96774193548387
2627.062549108312,-58.06451612903226
2628.0625729184026,-58.06451612903226
2629.062596728493,-51.61290322580645
2630.0626205385843,-51.61290322580645
2631.062644348675,-77.41935483870967
2632.0626681587655,-112.9032258064516
2633.062691968856,-125.80645161290322
2634.0627157789468,-112.9032258064516
2635.062739589038,-90.32258064516128
2636.0627633991285,-77.41935483870967
2637.062787209219,-90.32258064516128
2638.0628110193097,-90.32258064516128
2639.0628348294003,-64.51612903225806
2640.0628586394914,-38.70967741935483
2641.062882449582,-12.903225806451612
2642.0629062596727,12.903225806451612
2643.0629300697633,32.25806451612903
2644.062953879854,32.25806451612903
2645.062977689945,29.03225806451613
2646.0630015000356,51.61290322580645
2647.0630253101262,67.74193548387096
2648.063049120217,77.41935483870967
2649.0630729303075,70.96774193548387
2650.0630967403986,90.32258064516128
2651.063120550489,99.99999999999999
2652.06314436058,96.77419354838709
2653.0631681706705,80.64516129032258
2654.0631919807615,61.29032258064516
2655.063215790852,67.74193548387096
2656.063239600943,70.96774193548387
2657.0632634110334,74.19354838709677
2658.063287221124,90.32258064516128
2659.063311031215,93.54838709677418
2660.0633348413057,87.09677419354838
2661.0633586513964,77.41935483870967
2662.063382461487,74.19354838709677
2663.0634062715776,45.16129032258064
2664.0634300816687,9.677419354838708
2665.0634538917593,9.677419354838708
2666.06347770185,3.225806451612903
2667.0635015119406,0.0
2668.063525322031,6.451612903225806
2669.0635491321223,32.25806451612903
2670.063572942213,45.16129032258064
2671.0635967523035,51.61290322580645
2672.063620562394,38.70967741935483
2673.0636443724848,22.58064516129032
2674.063668182576,-3.225806451612903
2675.0636919926665,-32.25806451612903
2676.063715802757,-51.61290322580645
2677.0637396128477,-9.677419354838708
2678.0637634229383,35.483870967741936
2679.0637872330294,45.16129032258064
2680.06381104312,41.935483870967744
2681.0638348532107,35.483870967741936
2682.0638586633013,51.61290322580645
2683.063882473392,119.35483870967742
2684.063906283483,164.51612903225805
2685.0639300935736,151.61290322580646
2686.0639539036642,112.9032258064516
2687.063977713755,87.09677419354838
2688.0640015238455,80.64516129032258
2689.0640253339366,67.74193548387096
2690.064049144027,64.51612903225806
2691.064072954118,51.61290322580645
2692.0640967642084,45.16129032258064
2693.064120574299,51.61290322580645
2694.06414438439,54.83870967741935
2695.0641681944808,54.83870967741935
2696.0641920045714,54.83870967741935
2697.064215814662,61.29032258064516
2698.0642396247526,70.96774193548387
2699.0642634348437,93.54838709677418
2700.0642872449343,132.258064516129
2701.064311055025,148.38709677419354
2702.0643348651156,132.258064516129
2703.064358675206,106.4516129032258
2704.0643824852973,93.54838709677418
2705.064406295388,67.74193548387096
2706.0644301054786,41.935483870967744
2707.064453915569,54.83870967741935
2708.06447772566,96.77419354838709
2709.064501535751,138.70967741935482
2710.0645253458415,164.51612903225805
2711.064549155932,174.19354838709677
2712.0645729660228,193.54838709677418
2713.0645967761134,209.6774193548387
2714.0646205862045,229.0322580645161
2715.064644396295,245.16129032258064
2716.0646682063857,245.16129032258064
2717.0646920164763,219.3548387096774
2718.064715826567,196.7741935483871
2719.064739636658,190.32258064516128
2720.0647634467487,199.99999999999997
2721.0647872568393,183.8709677419355
2722.06481106693,167.74193548387098
2723.0648348770205,154.83870967741933
2724.0648586871116,148.38709677419354
2725.0648824972022,141.93548387096774
2726.064906307293,129.03225806451613
2727.0649301173835,112.9032258064516
2728.064953927474,116.12903225806453
2729.064977737565,122.58064516129032
2730.065001547656,122.58064516129032
2731.0650253577464,109.6774193548387
2732.065049167837,99.99999999999999
2733.0650729779277,122.58064516129032
2734.0650967880188,158.06451612903226
2735.0651205981094,190.32258064516128
2736.0651444082,193.54838709677418
2737.0651682182906,164.51612903225805
2738.0651920283813,138.70967741935482
2739.0652158384723,119.35483870967742
2740.065239648563,116.12903225806453
2741.0652634586536,122.58064516129032
2742.065287268744,148.38709677419354
2743.065311078835,183.8709677419355
2744.065334888926,212.9032258064516
2745.0653586990165,209.6774193548387
2746.065382509107,167.74193548387098
2747.065406319198,135.48387096774192
2748.065430129289,135.48387096774192
2749.0654539393795,141.93548387096774
2750.06547774947,119.35483870967742
2751.0655015595607,83.87096774193549
2752.0655253696514,83.87096774193549
2753.0655491797424,116.12903225806453
2754.065572989833,141.93548387096774
2755.0655967999237,132.258064516129
2756.0656206100143,93.54838709677418
2757.065644420105,70.96774193548387
2758.065668230196,54.83870967741935
2759.0656920402866,35.483870967741936
2760.0657158503773,16.129032258064516
2761.065739660468,3.225806451612903
2762.0657634705585,3.225806451612903
2763.0657872806496,3.225806451612903
2764.06581109074,12.903225806451612
2765.065834900831,35.483870967741936
2766.0658587109215,54.83870967741935
2767.065882521012,80.64516129032258
2768.065906331103,93.54838709677418
2769.065930141194,87.09677419354838
2770.0659539512844,67.74193548387096
2771.065977761375,41.935483870967744
2772.0660015714657,25.806451612903224
2773.0660253815568,29.03225806451613
2774.0660491916474,38.70967741935483
2775.066073001738,51.61290322580645
2776.0660968118286,54.83870967741935
2777.0661206219193,48.387096774193544
2778.0661444320103,25.806451612903224
2779.066168242101,6.451612903225806
2780.0661920521916,3.225806451612903
2781.066215862282,-6.451612903225806
2782.066239672373,0.0
2783.066263482464,-9.677419354838708
2784.0662872925545,-22.58064516129032
2785.066311102645,-35.483870967741936
2786.066334912736,-51.61290322580645
2787.0663587228264,-64.51612903225806
2788.0663825329175,-54.83870967741935
2789.066406343008,-51.61290322580645
2790.0664301530987,-35.483870967741936
2791.0664539631894,-35.483870967741936
2792.06647777328,-41.935483870967744
2793.066501583371,-38.70967741935483
2794.0665253934617,-35.483870967741936
2795.0665492035523,-25.806451612903224
2796.066573013643,-16.129032258064516
2797.0665968237336,-12.903225806451612
2798.0666206338246,-22.58064516129032
2799.0666444439153,-16.129032258064516
2800.066668254006,-9.677419354838708
2801.0666920640965,-9.677419354838708
2802.066715874187,-22.58064516129032
2803.066739684278,-29.03225806451613
2804.066763494369,-35.483870967741936
2805.0667873044595,-58.06451612903226
2806.06681111455,-67.74193548387096
2807.0668349246407,-61.29032258064516
2808.066858734732,-48.387096774193544
2809.0668825448224,-48.387096774193544
2810.066906354913,-45.16129032258064
2811.0669301650037,-54.83870967741935
2812.0669539750943,-58.06451612903226
2813.0669777851854,-64.51612903225806
2814.067001595276,-96.77419354838709
2815.0670254053666,-112.9032258064516
2816.0670492154572,-96.77419354838709
2817.067073025548,-80.64516129032258
2818.067096835639,-67.74193548387096
2819.0671206457296,-41.935483870967744
2820.06714445582,6.451612903225806
2821.067168265911,38.70967741935483
2822.0671920760014,70.96774193548387
2823.0672158860925,80.64516129032258
2824.067239696183,54.83870967741935
2825.067263506274,32.25806451612903
2826.0672873163644,6.451612903225806
2827.067311126455,3.225806451612903
2828.067334936546,0.0
2829.0673587466367,-19.354838709677416
2830.0673825567274,-58.06451612903226
2831.067406366818,-99.99999999999999
2832.0674301769086,-119.35483870967742
2833.0674539869997,-112.9032258064516
2834.0674777970903,-99.99999999999999
2835.067501607181,-90.32258064516128
2836.0675254172716,-67.74193548387096
2837.067549227362,-64.51612903225806
2838.0675730374533,-70.96774193548387
2839.067596847544,-61.29032258064516
2840.0676206576345,-41.935483870967744
2841.067644467725,-35.483870967741936
2842.067668277816,-41.935483870967744
2843.067692087907,-25.806451612903224
2844.0677158979975,3.225806451612903
2845.067739708088,12.903225806451612
2846.0677635181787,16.129032258064516
2847.06778732827,25.806451612903224
2848.0678111383604,25.806451612903224
2849.067834948451,0.0
2850.0678587585417,-12.903225806451612
2851.0678825686323,-35.483870967741936
2852.0679063787234,-74.19354838709677
2853.067930188814,-109.6774193548387
2854.0679539989046,-112.9032258064516
2855.0679778089952,-109.6774193548387
2856.068001619086,-96.77419354838709
2857.068025429177,-74.19354838709677
2858.0680492392676,-54.83870967741935
2859.068073049358,-51.61290322580645
2860.068096859449,-54.83870967741935
2861.0681206695394,-41.935483870967744
2862.0681444796305,-32.25806451612903
2863.068168289721,-19.354838709677416
2864.0681920998118,-9.677419354838708
2865.0682159099024,3.225806451612903
2866.068239719993,12.903225806451612
2867.068263530084,35.483870967741936
2868.0682873401747,54.83870967741935
2869.0683111502653,54.83870967741935
2870.068334960356,35.483870967741936
2871.0683587704466,22.58064516129032
2872.0683825805377,29.03225806451613
2873.0684063906283,41.935483870967744
2874.068430200719,48.387096774193544
2875.0684540108095,58.06451612903226
2876.0684778209,35.483870967741936
2877.0685016309912,3.225806451612903
2878.068525441082,-25.806451612903224
2879.0685492511725,-25.806451612903224
2880.068573061263,-6.451612903225806
2881.0685968713537,16.129032258064516
2882.068620681445,16.129032258064516
2883.0686444915355,6.451612903225806
2884.068668301626,-12.903225806451612
2885.0686921117167,-22.58064516129032
2886.0687159218073,-25.806451612903224
2887.0687397318984,-38.70967741935483
2888.068763541989,-58.06451612903226
2889.0687873520797,-48.387096774193544
2890.0688111621703,-25.806451612903224
2891.068834972261,-3.225806451612903
2892.068858782352,19.354838709677416
2893.0688825924426,38.70967741935483
2894.0689064025332,45.16129032258064
2895.068930212624,67.74193548387096
2896.0689540227145,87.09677419354838
2897.0689778328056,83.87096774193549
2898.069001642896,80.64516129032258
2899.069025452987,67.74193548387096
2900.0690492630774,32.25806451612903
2901.069073073168,-6.451612903225806
2902.069096883259,-67.74193548387096
2903.0691206933498,-116.12903225806453
2904.0691445034404,-119.35483870967742
2905.069168313531,-109.6774193548387
2906.0691921236216,-99.99999999999999
2907.0692159337127,-83.87096774193549
2908.0692397438033,-64.51612903225806
2909.069263553894,-58.06451612903226
2910.0692873639846,-51.61290322580645
2911.069311174075,-61.29032258064516
2912.0693349841663,-87.09677419354838
2913.069358794257,-112.9032258064516
2914.0693826043475,-138.70967741935482
2915.069406414438,-132.258064516129
2916.069430224529,-116.12903225806453
2917.06945403462,-99.99999999999999
2918.0694778447105,-80.64516129032258
2919.069501654801,-61.29032258064516
2920.0695254648917,-12.903225806451612
2921.0695492749824,6.451612903225806
2922.0695730850734,-12.903225806451612
2923.069596895164,-25.806451612903224
2924.0696207052547,-32.25806451612903
2925.0696445153453,-32.25806451612903
2926.069668325436,-25.806451612903224
2927.069692135527,-19.354838709677416
2928.0697159456176,-25.806451612903224
2929.0697397557083,-29.03225806451613
2930.069763565799,-38.70967741935483
2931.0697873758895,-64.51612903225806
2932.0698111859806,-77.41935483870967
2933.069834996071,-83.87096774193549
2934.069858806162,-70.96774193548387
2935.0698826162525,-67.74193548387096
2936.0699064263436,-83.87096774193549
2937.069930236434,-87.09677419354838
2938.069954046525,-80.64516129032258
2939.0699778566154,-51.61290322580645
2940.070001666706,-29.03225806451613
2941.070025476797,-32.25806451612903
2942.0700492868878,-29.03225806451613
2943.0700730969784,-9.677419354838708
2944.070096907069,3.225806451612903
2945.0701207171596,16.129032258064516
2946.0701445272507,45.16129032258064
2947.0701683373413,45.16129032258064
2948.070192147432,32.25806451612903
2949.0702159575226,29.03225806451613
2950.070239767613,19.354838709677416
2951.0702635777043,22.58064516129032
2952.070287387795,35.483870967741936
2953.0703111978855,19.354838709677416
2954.070335007976,-25.806451612903224
2955.070358818067,-32.25806451612903
2956.070382628158,-6.451612903225806
2957.0704064382485,3.225806451612903
2958.070430248339,0.0
2959.0704540584297,-6.451612903225806
2960.0704778685204,-16.129032258064516
2961.0705016786114,-6.451612903225806
2962.070525488702,9.677419354838708
2963.0705492987927,32.25806451612903
2964.0705731088833,51.61290322580645
2965.070596918974,74.19354838709677
2966.070620729065,96.77419354838709
2967.0706445391556,132.258064516129
2968.0706683492463,158.06451612903226
2969.070692159337,187.09677419354836
2970.0707159694275,229.0322580645161
2971.0707397795186,270.96774193548384
2972.070763589609,293.54838709677415
2973.0707873997,316.1290322580645
2974.0708112097905,345.1612903225806
2975.070835019881,354.83870967741933
2976.070858829972,361.2903225806451
2977.070882640063,351.61290322580646
2978.0709064501534,332.25806451612897
2979.070930260244,300.0
2980.0709540703347,303.2258064516129
2981.0709778804257,287.0967741935484
2982.0710016905164,264.516129032258
2983.071025500607,270.96774193548384
2984.0710493106976,267.7419354838709
2985.0710731207882,241.93548387096774
2986.0710969308793,219.3548387096774
2987.07112074097,138.70967741935482
2988.0711445510606,41.935483870967744
2989.071168361151,-16.129032258064516
2990.071192171242,-48.387096774193544
2991.071215981333,-87.09677419354838
2992.0712397914235,-148.38709677419354
2993.071263601514,-206.4516129032258
2994.0712874116048,-258.06451612903226
2995.0713112216954,-316.1290322580645
2996.0713350317865,-354.83870967741933
2997.071358841877,-387.09677419354836
2998.0713826519677,-406.4516129032258
2999.0714064620583,-393.5483870967742
3000.071430272149,-383.8709677419355
3001.07145408224,-387.09677419354836
3002.0714778923307,-396.77419354838713
3003.0715017024213,-390.3225806451613
3004.071525512512,-383.8709677419355
3005.0715493226026,-361.2903225806451
3006.0715731326936,-335.48387096774195
3007.0715969427843,-312.9032258064516
3008.071620752875,-287.0967741935484
3009.0716445629655,-270.96774193548384
3010.071668373056,-258.06451612903226
3011.071692183147,-258.06451612903226
3012.071715993238,-254.83870967741933
3013.0717398033285,-248.38709677419354
3014.071763613419,-232.25806451612905
3015.0717874235097,-177.41935483870967
3016.071811233601,-103.2258064516129
3017.0718350436914,-58.06451612903226
3018.071858853782,-38.70967741935483
3019.0718826638727,-19.354838709677416
3020.0719064739633,-12.903225806451612
3021.0719302840544,-16.129032258064516
3022.071954094145,3.225806451612903
3023.0719779042356,41.935483870967744
3024.0720017143262,45.16129032258064
3025.072025524417,9.677419354838708
3026.072049334508,-22.58064516129032
3027.0720731445986,0.0
3028.072096954689,22.58064516129032
3029.07212076478,9.677419354838708
3030.072144574871,-6.451612903225806
3031.0721683849615,-6.451612903225806
3032.072192195052,-9.677419354838708
3033.0722160051428,-25.806451612903224
3034.0722398152334,-29.03225806451613
3035.0722636253245,-22.58064516129032
3036.072287435415,-16.129032258064516
3037.0723112455057,-16.129032258064516
3038.0723350555963,-22.58064516129032
3039.072358865687,-25.806451612903224
3040.072382675778,-41.935483870967744
3041.0724064858687,-58.06451612903226
3042.0724302959593,-61.29032258064516
3043.07245410605,-41.935483870967744
3044.0724779161405,-29.03225806451613
3045.0725017262316,-16.129032258064516
3046.0725255363222,-12.903225806451612
3047.072549346413,-19.354838709677416
3048.0725731565035,-9.677419354838708
3049.072596966594,6.451612903225806
3050.072620776685,12.903225806451612
3051.072644586776,22.58064516129032
3052.0726683968664,29.03225806451613
3053.072692206957,16.129032258064516
3054.0727160170477,-3.225806451612903
3055.072739827139,-6.451612903225806
3056.0727636372294,3.225806451612903
3057.07278744732,0.0
3058.0728112574106,6.451612903225806
3059.0728350675013,22.58064516129032
3060.0728588775924,41.935483870967744
3061.072882687683,61.29032258064516
3062.0729064977736,64.51612903225806
3063.072930307864,51.61290322580645
3064.072954117955,45.16129032258064
3065.072977928046,48.387096774193544
3066.0730017381366,45.16129032258064
3067.073025548227,45.16129032258064
3068.073049358318,32.25806451612903
3069.0730731684084,22.58064516129032
3070.0730969784995,12.903225806451612
3071.07312078859,16.129032258064516
3072.0731445986808,35.483870967741936
3073.0731684087714,61.29032258064516
3074.073192218862,116.12903225806453
3075.073216028953,151.61290322580646
3076.0732398390437,161.29032258064515
3077.0732636491343,148.38709677419354
3078.073287459225,129.03225806451613
3079.0733112693156,99.99999999999999
3080.0733350794067,74.19354838709677
3081.0733588894973,58.06451612903226
3082.073382699588,45.16129032258064
3083.0734065096785,41.935483870967744
3084.073430319769,51.61290322580645
3085.0734541298602,51.61290322580645
3086.073477939951,38.70967741935483
3087.0735017500415,41.935483870967744
3088.073525560132,54.83870967741935
3089.0735493702227,77.41935483870967
3090.073573180314,45.16129032258064
3091.0735969904044,6.451612903225806
3092.073620800495,16.129032258064516
3093.0736446105857,45.16129032258064
3094.0736684206763,93.54838709677418
3095.0736922307674,148.38709677419354
3096.073716040858,187.09677419354836
3097.0737398509486,212.9032258064516
3098.0737636610393,206.4516129032258
3099.07378747113,164.51612903225805
3100.073811281221,122.58064516129032
3101.0738350913116,77.41935483870967
3102.073858901402,45.16129032258064
3103.073882711493,25.806451612903224
3104.0739065215835,32.25806451612903
3105.0739303316745,35.483870967741936
3106.073954141765,32.25806451612903
3107.073977951856,35.483870967741936
3108.0740017619464,48.387096774193544
3109.074025572037,67.74193548387096
3110.074049382128,93.54838709677418
3111.0740731922187,116.12903225806453
3112.0740970023094,129.03225806451613
3113.0741208124,122.58064516129032
3114.0741446224906,112.9032258064516
3115.0741684325817,116.12903225806453
3116.0741922426723,125.80645161290322
3117.074216052763,129.03225806451613
3118.0742398628536,122.58064516129032
3119.0742636729447,119.35483870967742
3120.0742874830353,109.6774193548387
3121.074311293126,96.77419354838709
3122.0743351032165,77.41935483870967
3123.074358913307,64.51612903225806
3124.0743827233982,77.41935483870967
3125.074406533489,96.77419354838709
3126.0744303435795,129.03225806451613
3127.07445415367,167.74193548387098
3128.0744779637607,177.41935483870967
3129.074501773852,196.7741935483871
3130.0745255839424,212.9032258064516
3131.074549394033,206.4516129032258
3132.0745732041237,196.7741935483871
3133.0745970142143,190.32258064516128
3134.0746208243054,180.64516129032256
3135.074644634396,177.41935483870967
3136.0746684444866,180.64516129032256
3137.0746922545773,170.96774193548387
3138.074716064668,145.16129032258067
3139.074739874759,125.80645161290322
3140.0747636848496,125.80645161290322
3141.07478749494,116.12903225806453
3142.074811305031,106.4516129032258
