timestamp,valores
0.0,41.935483870967744
1.000025740688306,16.129032258064516
2.000051481376612,-16.129032258064516
3.0000772220649177,-45.16129032258064
4.000102962753224,-51.61290322580645
5.00012870344153,-48.387096774193544
6.000154444129835,-32.25806451612903
7.0001801848181415,-25.806451612903224
8.000205925506448,-19.354838709677416
9.000231666194754,-12.903225806451612
10.00025740688306,0.0
11.000283147571366,6.451612903225806
12.00030888825967,6.451612903225806
13.000334628947977,3.225806451612903
14.000360369636283,-16.129032258064516
15.00038611032459,-29.03225806451613
16.000411851012895,-25.806451612903224
17.0004375917012,-9.677419354838708
18.000463332389508,25.806451612903224
19.000489073077812,45.16129032258064
20.00051481376612,41.935483870967744
21.000540554454425,38.70967741935483
22.000566295142733,32.25806451612903
23.000592035831037,35.483870967741936
24.00061777651934,41.935483870967744
25.00064351720765,54.83870967741935
26.000669257895954,54.83870967741935
27.00069499858426,25.806451612903224
28.000720739272566,-9.677419354838708
29.000746479960874,-35.483870967741936
30.00077222064918,-51.61290322580645
31.000797961337486,-48.387096774193544
32.00082370202579,-32.25806451612903
33.0008494427141,-12.903225806451612
34.0008751834024,-3.225806451612903
35.00090092409071,9.677419354838708
36.000926664779016,25.806451612903224
37.000952405467324,25.806451612903224
38.000978146155624,16.129032258064516
39.00100388684393,0.0
40.00102962753224,-9.677419354838708
41.00105536822054,-16.129032258064516
42.00108110890885,12.903225806451612
43.00110684959716,48.387096774193544
44.001132590285465,51.61290322580645
45.001158330973766,41.935483870967744
46.001184071662074,32.25806451612903
47.00120981235038,12.903225806451612
48.00123555303868,3.225806451612903
49.00126129372699,0.0
50.0012870344153,-12.903225806451612
51.00131277510361,-9.677419354838708
52.00133851579191,6.451612903225806
53.001364256480215,9.677419354838708
54.00138999716852,6.451612903225806
55.00141573785683,12.903225806451612
56.00144147854513,25.806451612903224
57.00146721923344,29.03225806451613
58.00149295992175,19.354838709677416
59.00151870061005,16.129032258064516
60.00154444129836,25.806451612903224
61.001570181986665,45.16129032258064
62.00159592267497,45.16129032258064
63.001621663363274,32.25806451612903
64.00164740405158,32.25806451612903
65.00167314473988,45.16129032258064
66.0016988854282,41.935483870967744
67.0017246261165,35.483870967741936
68.0017503668048,51.61290322580645
69.00177610749311,61.29032258064516
70.00180184818142,45.16129032258064
71.00182758886973,38.70967741935483
72.00185332955803,32.25806451612903
73.00187907024633,41.935483870967744
74.00190481093465,41.935483870967744
75.00193055162295,45.16129032258064
76.00195629231125,58.06451612903226
77.00198203299956,67.74193548387096
78.00200777368786,61.29032258064516
79.00203351437617,64.51612903225806
80.00205925506448,70.96774193548387
81.00208499575278,48.387096774193544
82.00211073644108,35.483870967741936
83.0021364771294,45.16129032258064
84.0021622178177,48.387096774193544
85.00218795850601,35.483870967741936
86.00221369919431,0.0
87.00223943988262,-29.03225806451613
88.00226518057093,-29.03225806451613
89.00229092125923,-16.129032258064516
90.00231666194753,0.0
91.00234240263585,3.225806451612903
92.00236814332415,3.225806451612903
93.00239388401245,12.903225806451612
94.00241962470076,12.903225806451612
95.00244536538906,16.129032258064516
96.00247110607737,35.483870967741936
97.00249684676568,45.16129032258064
98.00252258745398,29.03225806451613
99.0025483281423,12.903225806451612
100.0025740688306,19.354838709677416
101.0025998095189,25.806451612903224
102.00262555020721,38.70967741935483
103.00265129089551,58.06451612903226
104.00267703158381,48.387096774193544
105.00270277227213,35.483870967741936
106.00272851296043,32.25806451612903
107.00275425364873,35.483870967741936
108.00277999433705,38.70967741935483
109.00280573502535,38.70967741935483
110.00283147571366,35.483870967741936
111.00285721640196,45.16129032258064
112.00288295709026,58.06451612903226
113.00290869777858,70.96774193548387
114.00293443846688,77.41935483870967
115.00296017915518,80.64516129032258
116.0029859198435,74.19354838709677
117.0030116605318,51.61290322580645
118.0030374012201,41.935483870967744
119.00306314190841,35.483870967741936
120.00308888259671,45.16129032258064
121.00311462328501,61.29032258064516
122.00314036397333,45.16129032258064
123.00316610466163,41.935483870967744
124.00319184534995,38.70967741935483
125.00321758603825,41.935483870967744
126.00324332672655,38.70967741935483
127.00326906741486,48.387096774193544
128.00329480810316,64.51612903225806
129.00332054879146,77.41935483870967
130.00334628947977,93.54838709677418
131.0033720301681,96.77419354838709
132.0033977708564,96.77419354838709
133.0034235115447,83.87096774193549
134.003449252233,64.51612903225806
135.0034749929213,54.83870967741935
136.0035007336096,64.51612903225806
137.00352647429793,80.64516129032258
138.00355221498623,93.54838709677418
139.00357795567453,103.2258064516129
140.00360369636283,96.77419354838709
141.00362943705113,87.09677419354838
142.00365517773946,64.51612903225806
143.00368091842776,48.387096774193544
144.00370665911606,35.483870967741936
145.00373239980436,19.354838709677416
146.00375814049266,16.129032258064516
147.00378388118096,29.03225806451613
148.0038096218693,45.16129032258064
149.0038353625576,38.70967741935483
150.0038611032459,12.903225806451612
151.0038868439342,-12.903225806451612
152.0039125846225,-41.935483870967744
153.0039383253108,-41.935483870967744
154.00396406599913,-32.25806451612903
155.00398980668743,-12.903225806451612
156.00401554737573,-3.225806451612903
157.00404128806403,-9.677419354838708
158.00406702875233,-12.903225806451612
159.00409276944066,-6.451612903225806
160.00411851012896,0.0
161.00414425081726,-9.677419354838708
162.00416999150556,-32.25806451612903
163.00419573219386,-32.25806451612903
164.00422147288216,-35.483870967741936
165.0042472135705,-48.387096774193544
166.0042729542588,-58.06451612903226
167.0042986949471,-35.483870967741936
168.0043244356354,6.451612903225806
169.0043501763237,38.70967741935483
170.00437591701203,70.96774193548387
171.00440165770033,58.06451612903226
172.00442739838863,25.806451612903224
173.00445313907693,-9.677419354838708
174.00447887976523,-35.483870967741936
175.00450462045353,-45.16129032258064
176.00453036114186,-51.61290322580645
177.00455610183016,-48.387096774193544
178.00458184251846,-64.51612903225806
179.00460758320676,-103.2258064516129
180.00463332389506,-112.9032258064516
181.0046590645834,-99.99999999999999
182.0046848052717,-80.64516129032258
183.00471054596,-58.06451612903226
184.0047362866483,-54.83870967741935
185.0047620273366,-48.387096774193544
186.0047877680249,-35.483870967741936
187.00481350871323,-16.129032258064516
188.00483924940153,-3.225806451612903
189.00486499008983,-16.129032258064516
190.00489073077813,-41.935483870967744
191.00491647146643,-64.51612903225806
192.00494221215473,-70.96774193548387
193.00496795284306,-58.06451612903226
194.00499369353136,-41.935483870967744
195.00501943421966,-38.70967741935483
196.00504517490796,-35.483870967741936
197.00507091559626,-48.387096774193544
198.0050966562846,-48.387096774193544
199.0051223969729,-54.83870967741935
200.0051481376612,-64.51612903225806
201.0051738783495,-77.41935483870967
202.0051996190378,-77.41935483870967
203.0052253597261,-77.41935483870967
204.00525110041443,-64.51612903225806
205.00527684110273,-67.74193548387096
206.00530258179103,-70.96774193548387
207.00532832247933,-70.96774193548387
208.00535406316763,-54.83870967741935
209.00537980385596,-48.387096774193544
210.00540554454426,-32.25806451612903
211.00543128523256,-12.903225806451612
212.00545702592086,9.677419354838708
213.00548276660916,19.354838709677416
214.00550850729746,19.354838709677416
215.0055342479858,12.903225806451612
216.0055599886741,6.451612903225806
217.0055857293624,12.903225806451612
218.0056114700507,25.806451612903224
219.005637210739,35.483870967741936
220.00566295142733,67.74193548387096
221.00568869211563,116.12903225806453
222.00571443280393,154.83870967741933
223.00574017349223,209.6774193548387
224.00576591418053,261.2903225806452
225.00579165486883,322.5806451612903
226.00581739555716,383.8709677419355
227.00584313624546,412.9032258064516
228.00586887693376,438.7096774193548
229.00589461762206,470.9677419354839
230.00592035831036,519.3548387096773
231.0059460989987,554.8387096774193
232.005971839687,583.8709677419355
233.0059975803753,619.3548387096773
234.0060233210636,645.1612903225806
235.0060490617519,651.6129032258063
236.0060748024402,632.258064516129
237.00610054312853,619.3548387096773
238.00612628381683,625.8064516129032
239.00615202450513,625.8064516129032
240.00617776519343,629.0322580645161
241.00620350588173,632.258064516129
242.00622924657003,606.4516129032259
243.00625498725836,570.9677419354838
244.00628072794666,500.0
245.00630646863496,441.9354838709677
246.00633220932326,403.22580645161287
247.00635795001156,361.2903225806451
248.0063836906999,293.54838709677415
249.0064094313882,219.3548387096774
250.0064351720765,129.03225806451613
251.0064609127648,38.70967741935483
252.0064866534531,-64.51612903225806
253.0065123941414,-138.70967741935482
254.00653813482973,-174.19354838709677
255.00656387551803,-203.2258064516129
256.0065896162063,-248.38709677419354
257.00661535689466,-303.2258064516129
258.00664109758293,-322.5806451612903
259.00666683827126,-348.38709677419354
260.00669257895953,-358.06451612903226
261.00671831964786,-361.2903225806451
262.0067440603362,-358.06451612903226
263.00676980102446,-345.1612903225806
264.0067955417128,-329.0322580645161
265.00682128240106,-290.32258064516134
266.0068470230894,-254.83870967741933
267.00687276377766,-238.70967741935485
268.006898504466,-235.48387096774195
269.0069242451543,-232.25806451612905
270.0069499858426,-212.9032258064516
271.0069757265309,-183.8709677419355
272.0070014672192,-161.29032258064515
273.0070272079075,-151.61290322580646
274.00705294859586,-158.06451612903226
275.0070786892841,-183.8709677419355
276.00710442997246,-209.6774193548387
277.00713017066073,-212.9032258064516
278.00715591134906,-187.09677419354836
279.0071816520374,-148.38709677419354
280.00720739272566,-119.35483870967742
281.007233133414,-103.2258064516129
282.00725887410226,-96.77419354838709
283.0072846147906,-99.99999999999999
284.0073103554789,-99.99999999999999
285.0073360961672,-87.09677419354838
286.0073618368555,-67.74193548387096
287.0073875775438,-70.96774193548387
288.0074133182321,-41.935483870967744
289.0074390589204,12.903225806451612
290.0074647996087,35.483870967741936
291.00749054029706,25.806451612903224
292.0075162809853,-19.354838709677416
293.00754202167366,-64.51612903225806
294.00756776236193,-103.2258064516129
295.00759350305026,-135.48387096774192
296.0076192437386,-148.38709677419354
297.00764498442686,-141.93548387096774
298.0076707251152,-122.58064516129032
299.00769646580346,-119.35483870967742
300.0077222064918,-122.58064516129032
301.0077479471801,-129.03225806451613
302.0077736878684,-135.48387096774192
303.0077994285567,-135.48387096774192
304.007825169245,-135.48387096774192
305.0078509099333,-135.48387096774192
306.0078766506216,-129.03225806451613
307.0079023913099,-103.2258064516129
308.00792813199826,-77.41935483870967
309.0079538726865,-77.41935483870967
310.00797961337486,-83.87096774193549
311.00800535406313,-99.99999999999999
312.00803109475146,-125.80645161290322
313.0080568354398,-109.6774193548387
314.00808257612806,-83.87096774193549
315.0081083168164,-64.51612903225806
316.00813405750466,-45.16129032258064
317.008159798193,-35.483870967741936
318.0081855388813,-25.806451612903224
319.0082112795696,-25.806451612903224
320.0082370202579,-35.483870967741936
321.0082627609462,-41.935483870967744
322.0082885016345,-51.61290322580645
323.00831424232285,-61.29032258064516
324.0083399830111,-70.96774193548387
325.00836572369946,-74.19354838709677
326.0083914643877,-64.51612903225806
327.00841720507606,-67.74193548387096
328.00844294576433,-80.64516129032258
329.00846868645266,-83.87096774193549
330.008494427141,-67.74193548387096
331.00852016782926,-48.387096774193544
332.0085459085176,-32.25806451612903
333.00857164920586,-25.806451612903224
334.0085973898942,-22.58064516129032
335.0086231305825,-16.129032258064516
336.0086488712708,-22.58064516129032
337.0086746119591,-29.03225806451613
338.0087003526474,-38.70967741935483
339.0087260933357,-9.677419354838708
340.00875183402405,12.903225806451612
341.0087775747123,16.129032258064516
342.00880331540066,0.0
343.0088290560889,-9.677419354838708
344.00885479677726,-22.58064516129032
345.00888053746553,-41.935483870967744
346.00890627815386,-58.06451612903226
347.0089320188422,-54.83870967741935
348.00895775953046,-38.70967741935483
349.0089835002188,-12.903225806451612
350.00900924090706,-3.225806451612903
351.0090349815954,-9.677419354838708
352.0090607222837,-22.58064516129032
353.009086462972,-32.25806451612903
354.0091122036603,-35.483870967741936
355.0091379443486,-35.483870967741936
356.0091636850369,-32.25806451612903
357.00918942572525,-32.25806451612903
358.0092151664135,-16.129032258064516
359.00924090710186,-16.129032258064516
360.0092666477901,-22.58064516129032
361.00929238847846,-32.25806451612903
362.0093181291668,-38.70967741935483
363.00934386985506,-29.03225806451613
364.0093696105434,-29.03225806451613
365.00939535123166,-45.16129032258064
366.00942109192,-64.51612903225806
367.00944683260826,-74.19354838709677
368.0094725732966,-74.19354838709677
369.0094983139849,-64.51612903225806
370.0095240546732,-51.61290322580645
371.0095497953615,-64.51612903225806
372.0095755360498,-87.09677419354838
373.0096012767381,-112.9032258064516
374.00962701742645,-138.70967741935482
375.0096527581147,-135.48387096774192
376.00967849880305,-119.35483870967742
377.0097042394913,-96.77419354838709
378.00972998017966,-58.06451612903226
379.009755720868,-25.806451612903224
380.00978146155626,6.451612903225806
381.0098072022446,29.03225806451613
382.00983294293286,48.387096774193544
383.0098586836212,41.935483870967744
384.00988442430946,25.806451612903224
385.0099101649978,29.03225806451613
386.0099359056861,41.935483870967744
387.0099616463744,51.61290322580645
388.0099873870627,64.51612903225806
389.010013127751,80.64516129032258
390.0100388684393,96.77419354838709
391.01006460912765,106.4516129032258
392.0100903498159,103.2258064516129
393.01011609050425,83.87096774193549
394.0101418311925,58.06451612903226
395.01016757188086,45.16129032258064
396.0101933125692,51.61290322580645
397.01021905325746,54.83870967741935
398.0102447939458,54.83870967741935
399.01027053463406,51.61290322580645
400.0102962753224,48.387096774193544
401.0103220160107,51.61290322580645
402.010347756699,58.06451612903226
403.0103734973873,54.83870967741935
404.0103992380756,32.25806451612903
405.0104249787639,9.677419354838708
406.0104507194522,-6.451612903225806
407.0104764601405,-6.451612903225806
408.01050220082885,-16.129032258064516
409.0105279415171,-25.806451612903224
410.01055368220545,-29.03225806451613
411.0105794228937,-32.25806451612903
412.01060516358206,-35.483870967741936
413.0106309042704,-29.03225806451613
414.01065664495866,-16.129032258064516
415.010682385647,6.451612903225806
416.01070812633526,32.25806451612903
417.0107338670236,48.387096774193544
418.0107596077119,67.74193548387096
419.0107853484002,80.64516129032258
420.0108110890885,83.87096774193549
421.0108368297768,74.19354838709677
422.0108625704651,64.51612903225806
423.01088831115345,51.61290322580645
424.0109140518417,38.70967741935483
425.01093979253005,38.70967741935483
426.0109655332183,64.51612903225806
427.01099127390665,70.96774193548387
428.0110170145949,64.51612903225806
429.01104275528326,41.935483870967744
430.0110684959716,38.70967741935483
431.01109423665986,61.29032258064516
432.0111199773482,87.09677419354838
433.01114571803646,96.77419354838709
434.0111714587248,103.2258064516129
435.0111971994131,93.54838709677418
436.0112229401014,70.96774193548387
437.0112486807897,61.29032258064516
438.011274421478,67.74193548387096
439.0113001621663,87.09677419354838
440.01132590285465,112.9032258064516
441.0113516435429,103.2258064516129
442.01137738423125,87.09677419354838
443.0114031249195,77.41935483870967
444.01142886560785,70.96774193548387
445.0114546062961,83.87096774193549
446.01148034698446,96.77419354838709
447.0115060876728,93.54838709677418
448.01153182836106,80.64516129032258
449.0115575690494,54.83870967741935
450.01158330973766,51.61290322580645
451.011609050426,64.51612903225806
452.0116347911143,67.74193548387096
453.0116605318026,67.74193548387096
454.0116862724909,77.41935483870967
455.0117120131792,70.96774193548387
456.0117377538675,45.16129032258064
457.01176349455585,29.03225806451613
458.0117892352441,45.16129032258064
459.01181497593245,64.51612903225806
460.0118407166207,67.74193548387096
461.01186645730905,77.41935483870967
462.0118921979974,90.32258064516128
463.01191793868566,93.54838709677418
464.011943679374,106.4516129032258
465.01196942006226,106.4516129032258
466.0119951607506,106.4516129032258
467.01202090143886,103.2258064516129
468.0120466421272,96.77419354838709
469.0120723828155,80.64516129032258
470.0120981235038,70.96774193548387
471.0121238641921,67.74193548387096
472.0121496048804,74.19354838709677
473.0121753455687,90.32258064516128
474.01220108625705,87.09677419354838
475.0122268269453,87.09677419354838
476.01225256763365,99.99999999999999
477.0122783083219,112.9032258064516
478.01230404901025,129.03225806451613
479.0123297896986,135.48387096774192
480.01235553038686,132.258064516129
481.0123812710752,129.03225806451613
482.01240701176346,129.03225806451613
483.0124327524518,119.35483870967742
484.01245849314006,116.12903225806453
485.0124842338284,116.12903225806453
486.0125099745167,83.87096774193549
487.012535715205,61.29032258064516
488.0125614558933,35.483870967741936
489.0125871965816,0.0
490.0126129372699,-12.903225806451612
491.01263867795825,3.225806451612903
492.0126644186465,25.806451612903224
493.01269015933485,38.70967741935483
494.0127159000231,70.96774193548387
495.01274164071145,106.4516129032258
496.0127673813998,99.99999999999999
497.01279312208806,90.32258064516128
498.0128188627764,67.74193548387096
499.01284460346466,29.03225806451613
500.012870344153,22.58064516129032
501.0128960848413,22.58064516129032
502.0129218255296,41.935483870967744
503.0129475662179,51.61290322580645
504.0129733069062,41.935483870967744
505.0129990475945,32.25806451612903
506.0130247882828,19.354838709677416
507.0130505289711,0.0
508.01307626965945,-16.129032258064516
509.0131020103477,-25.806451612903224
510.01312775103605,-16.129032258064516
511.0131534917243,0.0
512.0131792324127,12.903225806451612
513.013204973101,0.0
514.0132307137893,-9.677419354838708
515.0132564544775,-12.903225806451612
516.0132821951659,-29.03225806451613
517.0133079358542,-32.25806451612903
518.0133336765425,-32.25806451612903
519.0133594172308,-32.25806451612903
520.0133851579191,-45.16129032258064
521.0134108986074,-67.74193548387096
522.0134366392957,-83.87096774193549
523.013462379984,-70.96774193548387
524.0134881206724,-64.51612903225806
525.0135138613606,-67.74193548387096
526.0135396020489,-77.41935483870967
527.0135653427373,-90.32258064516128
528.0135910834256,-99.99999999999999
529.0136168241139,-109.6774193548387
530.0136425648021,-90.32258064516128
531.0136683054905,-67.74193548387096
532.0136940461788,-77.41935483870967
533.0137197868671,-90.32258064516128
534.0137455275553,-116.12903225806453
535.0137712682437,-132.258064516129
536.013797008932,-145.16129032258067
537.0138227496203,-145.16129032258067
538.0138484903086,-112.9032258064516
539.0138742309969,-87.09677419354838
540.0138999716852,-61.29032258064516
541.0139257123735,-38.70967741935483
542.0139514530618,-41.935483870967744
543.0139771937502,-58.06451612903226
544.0140029344384,-87.09677419354838
545.0140286751267,-135.48387096774192
546.014054415815,-161.29032258064515
547.0140801565034,-167.74193548387098
548.0141058971917,-138.70967741935482
549.0141316378799,-109.6774193548387
550.0141573785683,-87.09677419354838
551.0141831192566,-80.64516129032258
552.0142088599449,-99.99999999999999
553.0142346006332,-112.9032258064516
554.0142603413215,-112.9032258064516
555.0142860820098,-112.9032258064516
556.0143118226981,-119.35483870967742
557.0143375633864,-119.35483870967742
558.0143633040748,-112.9032258064516
559.014389044763,-109.6774193548387
560.0144147854513,-116.12903225806453
561.0144405261397,-122.58064516129032
562.014466266828,-109.6774193548387
563.0144920075163,-93.54838709677418
564.0145177482045,-77.41935483870967
565.0145434888929,-67.74193548387096
566.0145692295812,-74.19354838709677
567.0145949702695,-90.32258064516128
568.0146207109578,-103.2258064516129
569.0146464516461,-93.54838709677418
570.0146721923344,-90.32258064516128
571.0146979330227,-93.54838709677418
572.014723673711,-83.87096774193549
573.0147494143993,-80.64516129032258
574.0147751550876,-103.2258064516129
575.0148008957759,-122.58064516129032
576.0148266364642,-138.70967741935482
577.0148523771526,-141.93548387096774
578.0148781178408,-135.48387096774192
579.0149038585291,-132.258064516129
580.0149295992175,-122.58064516129032
581.0149553399058,-99.99999999999999
582.0149810805941,-70.96774193548387
583.0150068212823,-22.58064516129032
584.0150325619707,-9.677419354838708
585.015058302659,-19.354838709677416
586.0150840433473,-38.70967741935483
587.0151097840356,-51.61290322580645
588.0151355247239,-67.74193548387096
589.0151612654122,-87.09677419354838
590.0151870061005,-96.77419354838709
591.0152127467888,-106.4516129032258
592.0152384874772,-106.4516129032258
593.0152642281654,-99.99999999999999
594.0152899688537,-77.41935483870967
595.015315709542,-70.96774193548387
596.0153414502304,-83.87096774193549
597.0153671909187,-83.87096774193549
598.0153929316069,-83.87096774193549
599.0154186722953,-99.99999999999999
600.0154444129836,-103.2258064516129
601.0154701536719,-103.2258064516129
602.0154958943602,-106.4516129032258
603.0155216350485,-122.58064516129032
604.0155473757368,-141.93548387096774
605.0155731164251,-141.93548387096774
606.0155988571134,-119.35483870967742
607.0156245978018,-103.2258064516129
608.01565033849,-96.77419354838709
609.0156760791783,-96.77419354838709
610.0157018198666,-80.64516129032258
611.015727560555,-64.51612903225806
612.0157533012432,-61.29032258064516
613.0157790419315,-61.29032258064516
614.0158047826199,-61.29032258064516
615.0158305233082,-51.61290322580645
616.0158562639965,-41.935483870967744
617.0158820046847,-41.935483870967744
618.015907745373,-38.70967741935483
619.0159334860614,-25.806451612903224
620.0159592267497,-3.225806451612903
621.015984967438,12.903225806451612
622.0160107081263,29.03225806451613
623.0160364488146,29.03225806451613
624.0160621895029,16.129032258064516
625.0160879301912,12.903225806451612
626.0161136708796,0.0
627.0161394115678,-25.806451612903224
628.0161651522561,-45.16129032258064
629.0161908929445,-64.51612903225806
630.0162166336328,-80.64516129032258
631.0162423743211,-83.87096774193549
632.0162681150093,-87.09677419354838
633.0162938556977,-77.41935483870967
634.016319596386,-51.61290322580645
635.0163453370743,-38.70967741935483
636.0163710777626,-22.58064516129032
637.0163968184509,-16.129032258064516
638.0164225591392,-16.129032258064516
639.0164482998275,-16.129032258064516
640.0164740405158,-29.03225806451613
641.0164997812042,-32.25806451612903
642.0165255218924,-19.354838709677416
643.0165512625807,-16.129032258064516
644.016577003269,-25.806451612903224
645.0166027439574,-29.03225806451613
646.0166284846457,-35.483870967741936
647.0166542253339,-35.483870967741936
648.0166799660223,-25.806451612903224
649.0167057067106,-38.70967741935483
650.0167314473989,-51.61290322580645
651.0167571880871,-64.51612903225806
652.0167829287755,-77.41935483870967
653.0168086694638,-67.74193548387096
654.0168344101521,-67.74193548387096
655.0168601508404,-87.09677419354838
656.0168858915287,-87.09677419354838
657.016911632217,-74.19354838709677
658.0169373729053,-54.83870967741935
659.0169631135936,-51.61290322580645
660.016988854282,-58.06451612903226
661.0170145949702,-35.483870967741936
662.0170403356585,-3.225806451612903
663.0170660763469,16.129032258064516
664.0170918170352,19.354838709677416
665.0171175577235,9.677419354838708
666.0171432984117,-12.903225806451612
667.0171690391,-32.25806451612903
668.0171947797884,-35.483870967741936
669.0172205204767,-19.354838709677416
670.017246261165,-6.451612903225806
671.0172720018533,3.225806451612903
672.0172977425416,16.129032258064516
673.0173234832299,16.129032258064516
674.0173492239182,16.129032258064516
675.0173749646066,32.25806451612903
676.0174007052948,41.935483870967744
677.0174264459831,32.25806451612903
678.0174521866714,29.03225806451613
679.0174779273598,9.677419354838708
680.0175036680481,-3.225806451612903
681.0175294087363,-32.25806451612903
682.0175551494247,-58.06451612903226
683.017580890113,-58.06451612903226
684.0176066308013,-54.83870967741935
685.0176323714896,-38.70967741935483
686.0176581121779,-25.806451612903224
687.0176838528662,-35.483870967741936
688.0177095935545,-38.70967741935483
689.0177353342428,-38.70967741935483
690.0177610749311,-29.03225806451613
691.0177868156194,-25.806451612903224
692.0178125563077,-35.483870967741936
693.017838296996,-41.935483870967744
694.0178640376844,-48.387096774193544
695.0178897783726,-41.935483870967744
696.0179155190609,-22.58064516129032
697.0179412597493,-16.129032258064516
698.0179670004376,-25.806451612903224
699.0179927411259,-41.935483870967744
700.0180184818141,-45.16129032258064
701.0180442225025,-22.58064516129032
702.0180699631908,-9.677419354838708
703.0180957038791,3.225806451612903
704.0181214445674,9.677419354838708
705.0181471852557,0.0
706.018172925944,-19.354838709677416
707.0181986666323,-32.25806451612903
708.0182244073206,-41.935483870967744
709.018250148009,-38.70967741935483
710.0182758886972,-29.03225806451613
711.0183016293855,-22.58064516129032
712.0183273700738,-19.354838709677416
713.0183531107622,3.225806451612903
714.0183788514505,19.354838709677416
715.0184045921387,12.903225806451612
716.018430332827,3.225806451612903
717.0184560735154,0.0
718.0184818142037,-9.677419354838708
719.018507554892,-16.129032258064516
720.0185332955803,-12.903225806451612
721.0185590362686,-3.225806451612903
722.0185847769569,-3.225806451612903
723.0186105176452,-9.677419354838708
724.0186362583336,-29.03225806451613
725.0186619990218,-38.70967741935483
726.0186877397101,-38.70967741935483
727.0187134803984,-25.806451612903224
728.0187392210868,-6.451612903225806
729.018764961775,6.451612903225806
730.0187907024633,12.903225806451612
731.0188164431516,3.225806451612903
732.01884218384,-16.129032258064516
733.0188679245283,-35.483870967741936
734.0188936652165,-45.16129032258064
735.0189194059049,-38.70967741935483
736.0189451465932,-12.903225806451612
737.0189708872815,16.129032258064516
738.0189966279698,16.129032258064516
739.019022368658,-6.451612903225806
740.0190481093464,-16.129032258064516
741.0190738500347,-6.451612903225806
742.019099590723,6.451612903225806
743.0191253314114,16.129032258064516
744.0191510720996,12.903225806451612
745.0191768127879,35.483870967741936
746.0192025534762,54.83870967741935
747.0192282941646,77.41935483870967
748.0192540348529,99.99999999999999
749.0192797755411,77.41935483870967
750.0193055162295,64.51612903225806
751.0193312569178,70.96774193548387
752.0193569976061,67.74193548387096
753.0193827382944,58.06451612903226
754.0194084789827,38.70967741935483
755.019434219671,0.0
756.0194599603593,-41.935483870967744
757.0194857010476,-77.41935483870967
758.019511441736,-83.87096774193549
759.0195371824242,-64.51612903225806
760.0195629231125,-41.935483870967744
761.0195886638008,-19.354838709677416
762.0196144044892,-25.806451612903224
763.0196401451775,-22.58064516129032
764.0196658858657,9.677419354838708
765.019691626554,25.806451612903224
766.0197173672424,32.25806451612903
767.0197431079307,48.387096774193544
768.0197688486189,64.51612903225806
769.0197945893073,64.51612903225806
770.0198203299956,61.29032258064516
771.0198460706839,51.61290322580645
772.0198718113722,25.806451612903224
773.0198975520605,16.129032258064516
774.0199232927488,-3.225806451612903
775.0199490334371,-35.483870967741936
776.0199747741254,-64.51612903225806
777.0200005148138,-74.19354838709677
778.020026255502,-67.74193548387096
779.0200519961903,-67.74193548387096
780.0200777368786,-51.61290322580645
781.020103477567,-41.935483870967744
782.0201292182553,-25.806451612903224
783.0201549589435,-32.25806451612903
784.0201806996319,-19.354838709677416
785.0202064403202,6.451612903225806
786.0202321810085,16.129032258064516
787.0202579216968,6.451612903225806
788.020283662385,-9.677419354838708
789.0203094030734,-25.806451612903224
790.0203351437617,-35.483870967741936
791.02036088445,-32.25806451612903
792.0203866251384,-25.806451612903224
793.0204123658266,-22.58064516129032
794.0204381065149,-22.58064516129032
795.0204638472032,-35.483870967741936
796.0204895878916,-41.935483870967744
797.0205153285799,-41.935483870967744
798.0205410692681,-51.61290322580645
799.0205668099564,-67.74193548387096
800.0205925506448,-77.41935483870967
801.0206182913331,-77.41935483870967
802.0206440320214,-64.51612903225806
803.0206697727097,-41.935483870967744
804.020695513398,-29.03225806451613
805.0207212540863,-22.58064516129032
806.0207469947746,-16.129032258064516
807.020772735463,-9.677419354838708
808.0207984761512,-3.225806451612903
809.0208242168395,3.225806451612903
810.0208499575278,12.903225806451612
811.0208756982162,22.58064516129032
812.0209014389044,25.806451612903224
813.0209271795927,22.58064516129032
814.020952920281,0.0
815.0209786609694,0.0
816.0210044016577,12.903225806451612
817.0210301423459,16.129032258064516
818.0210558830343,12.903225806451612
819.0210816237226,6.451612903225806
820.0211073644109,-12.903225806451612
821.0211331050992,-38.70967741935483
822.0211588457875,-54.83870967741935
823.0211845864758,-41.935483870967744
824.0212103271641,-9.677419354838708
825.0212360678524,12.903225806451612
826.0212618085408,22.58064516129032
827.021287549229,32.25806451612903
828.0213132899173,41.935483870967744
829.0213390306056,29.03225806451613
830.021364771294,12.903225806451612
831.0213905119823,0.0
832.0214162526705,12.903225806451612
833.0214419933588,35.483870967741936
834.0214677340472,45.16129032258064
835.0214934747355,38.70967741935483
836.0215192154238,32.25806451612903
837.021544956112,25.806451612903224
838.0215706968004,29.03225806451613
839.0215964374887,29.03225806451613
840.021622178177,16.129032258064516
841.0216479188654,-3.225806451612903
842.0216736595536,-9.677419354838708
843.0216994002419,-3.225806451612903
844.0217251409302,19.354838709677416
845.0217508816186,38.70967741935483
846.0217766223069,41.935483870967744
847.0218023629951,25.806451612903224
848.0218281036834,3.225806451612903
849.0218538443718,9.677419354838708
850.0218795850601,29.03225806451613
851.0219053257483,32.25806451612903
852.0219310664367,35.483870967741936
853.021956807125,29.03225806451613
854.0219825478133,16.129032258064516
855.0220082885016,19.354838709677416
856.0220340291899,32.25806451612903
857.0220597698782,29.03225806451613
858.0220855105665,25.806451612903224
859.0221112512548,32.25806451612903
860.0221369919432,32.25806451612903
861.0221627326314,22.58064516129032
862.0221884733197,6.451612903225806
863.022214214008,-9.677419354838708
864.0222399546964,-9.677419354838708
865.0222656953847,6.451612903225806
866.0222914360729,9.677419354838708
867.0223171767612,9.677419354838708
868.0223429174496,-6.451612903225806
869.0223686581379,-9.677419354838708
870.0223943988262,-9.677419354838708
871.0224201395145,9.677419354838708
872.0224458802028,38.70967741935483
873.0224716208911,38.70967741935483
874.0224973615794,25.806451612903224
875.0225231022678,9.677419354838708
876.022548842956,0.0
877.0225745836443,19.354838709677416
878.0226003243326,45.16129032258064
879.022626065021,64.51612903225806
880.0226518057093,83.87096774193549
881.0226775463975,90.32258064516128
882.0227032870858,87.09677419354838
883.0227290277742,90.32258064516128
884.0227547684625,70.96774193548387
885.0227805091508,29.03225806451613
886.022806249839,-12.903225806451612
887.0228319905274,-35.483870967741936
888.0228577312157,-32.25806451612903
889.022883471904,-19.354838709677416
890.0229092125923,-22.58064516129032
891.0229349532806,-25.806451612903224
892.0229606939689,-12.903225806451612
893.0229864346572,3.225806451612903
894.0230121753456,12.903225806451612
895.0230379160338,25.806451612903224
896.0230636567221,32.25806451612903
897.0230893974104,29.03225806451613
898.0231151380988,12.903225806451612
899.0231408787871,0.0
900.0231666194753,3.225806451612903
901.0231923601636,16.129032258064516
902.023218100852,9.677419354838708
903.0232438415403,-6.451612903225806
904.0232695822286,-16.129032258064516
905.0232953229169,-19.354838709677416
906.0233210636052,6.451612903225806
907.0233468042935,32.25806451612903
908.0233725449818,35.483870967741936
909.0233982856702,16.129032258064516
910.0234240263584,16.129032258064516
911.0234497670467,22.58064516129032
912.023475507735,19.354838709677416
913.0235012484234,22.58064516129032
914.0235269891117,35.483870967741936
915.0235527297999,45.16129032258064
916.0235784704882,41.935483870967744
917.0236042111766,41.935483870967744
918.0236299518649,41.935483870967744
919.0236556925532,38.70967741935483
920.0236814332414,32.25806451612903
921.0237071739298,22.58064516129032
922.0237329146181,19.354838709677416
923.0237586553064,41.935483870967744
924.0237843959948,48.387096774193544
925.023810136683,41.935483870967744
926.0238358773713,22.58064516129032
927.0238616180596,9.677419354838708
928.023887358748,-3.225806451612903
929.0239130994362,-9.677419354838708
930.0239388401245,-12.903225806451612
931.0239645808128,-6.451612903225806
932.0239903215012,9.677419354838708
933.0240160621895,22.58064516129032
934.0240418028777,25.806451612903224
935.024067543566,48.387096774193544
936.0240932842544,64.51612903225806
937.0241190249427,51.61290322580645
938.024144765631,29.03225806451613
939.0241705063193,0.0
940.0241962470076,-16.129032258064516
941.0242219876959,-12.903225806451612
942.0242477283842,-9.677419354838708
943.0242734690726,6.451612903225806
944.0242992097608,22.58064516129032
945.0243249504491,25.806451612903224
946.0243506911374,19.354838709677416
947.0243764318258,22.58064516129032
948.0244021725141,29.03225806451613
949.0244279132023,25.806451612903224
950.0244536538906,16.129032258064516
951.024479394579,6.451612903225806
952.0245051352673,0.0
953.0245308759556,12.903225806451612
954.0245566166438,25.806451612903224
955.0245823573322,38.70967741935483
956.0246080980205,35.483870967741936
957.0246338387088,9.677419354838708
958.0246595793972,9.677419354838708
959.0246853200854,9.677419354838708
960.0247110607737,-6.451612903225806
961.024736801462,0.0
962.0247625421504,41.935483870967744
963.0247882828387,96.77419354838709
964.0248140235269,129.03225806451613
965.0248397642152,122.58064516129032
966.0248655049036,87.09677419354838
967.0248912455919,70.96774193548387
968.0249169862801,77.41935483870967
969.0249427269684,67.74193548387096
970.0249684676568,48.387096774193544
971.0249942083451,22.58064516129032
972.0250199490334,12.903225806451612
973.0250456897217,6.451612903225806
974.02507143041,-12.903225806451612
975.0250971710983,-32.25806451612903
976.0251229117866,-41.935483870967744
977.025148652475,-35.483870967741936
978.0251743931632,-25.806451612903224
979.0252001338515,-9.677419354838708
980.0252258745398,-6.451612903225806
981.0252516152282,-16.129032258064516
982.0252773559165,-22.58064516129032
983.0253030966047,-6.451612903225806
984.025328837293,-3.225806451612903
985.0253545779814,-22.58064516129032
986.0253803186697,-48.387096774193544
987.025406059358,-58.06451612903226
988.0254318000462,-58.06451612903226
989.0254575407346,-48.387096774193544
990.0254832814229,-41.935483870967744
991.0255090221112,-22.58064516129032
992.0255347627996,-3.225806451612903
993.0255605034878,6.451612903225806
994.0255862441761,19.354838709677416
995.0256119848644,32.25806451612903
996.0256377255528,19.354838709677416
997.0256634662411,-9.677419354838708
998.0256892069293,-19.354838709677416
999.0257149476176,-19.354838709677416
1000.025740688306,0.0
1001.0257664289943,25.806451612903224
1002.0257921696826,22.58064516129032
1003.0258179103708,22.58064516129032
1004.0258436510592,12.903225806451612
1005.0258693917475,-9.677419354838708
1006.0258951324358,-22.58064516129032
1007.025920873124,-25.806451612903224
1008.0259466138124,-22.58064516129032
1009.0259723545007,-19.354838709677416
1010.025998095189,-16.129032258064516
1011.0260238358774,-22.58064516129032
1012.0260495765656,-29.03225806451613
1013.0260753172539,-29.03225806451613
1014.0261010579422,-22.58064516129032
1015.0261267986306,-9.677419354838708
1016.0261525393189,-3.225806451612903
1017.0261782800071,-19.354838709677416
1018.0262040206954,-41.935483870967744
1019.0262297613838,-74.19354838709677
1020.0262555020721,-87.09677419354838
1021.0262812427604,-70.96774193548387
1022.0263069834486,-54.83870967741935
1023.026332724137,-35.483870967741936
1024.0263584648253,-9.677419354838708
1025.0263842055135,-16.129032258064516
1026.026409946202,-12.903225806451612
1027.0264356868902,9.677419354838708
1028.0264614275786,35.483870967741936
1029.0264871682668,48.387096774193544
1030.026512908955,51.61290322580645
1031.0265386496435,32.25806451612903
1032.0265643903317,12.903225806451612
1033.0265901310202,0.0
1034.0266158717084,-19.354838709677416
1035.0266416123966,-6.451612903225806
1036.026667353085,25.806451612903224
1037.0266930937732,38.70967741935483
1038.0267188344617,45.16129032258064
1039.02674457515,54.83870967741935
1040.0267703158381,61.29032258064516
1041.0267960565266,80.64516129032258
1042.0268217972148,106.4516129032258
1043.0268475379032,106.4516129032258
1044.0268732785914,103.2258064516129
1045.0268990192797,122.58064516129032
1046.026924759968,158.06451612903226
1047.0269505006563,190.32258064516128
1048.0269762413448,232.25806451612905
1049.027001982033,274.19354838709677
1050.0270277227212,348.38709677419354
1051.0270534634096,419.3548387096774
1052.0270792040978,454.8387096774193
1053.0271049447863,467.741935483871
1054.0271306854745,470.9677419354839
1055.0271564261627,464.5161290322581
1056.0271821668512,470.9677419354839
1057.0272079075394,500.0
1058.0272336482278,538.7096774193549
1059.027259388916,564.516129032258
1060.0272851296043,561.290322580645
1061.0273108702927,558.0645161290322
1062.027336610981,574.1935483870968
1063.0273623516694,570.9677419354838
1064.0273880923576,554.8387096774193
1065.0274138330458,519.3548387096773
1066.0274395737342,477.4193548387097
1067.0274653144224,409.6774193548387
1068.0274910551107,332.25806451612897
1069.027516795799,270.96774193548384
1070.0275425364873,222.5806451612903
1071.0275682771758,174.19354838709677
1072.027594017864,116.12903225806453
1073.0276197585522,58.06451612903226
1074.0276454992406,-6.451612903225806
1075.0276712399288,-67.74193548387096
1076.0276969806173,-132.258064516129
1077.0277227213055,-199.99999999999997
1078.0277484619937,-270.96774193548384
1079.0277742026822,-325.8064516129032
1080.0277999433704,-374.1935483870967
1081.0278256840588,-396.77419354838713
1082.027851424747,-416.12903225806446
1083.0278771654353,-435.4838709677419
1084.0279029061237,-429.0322580645161
1085.027928646812,-419.3548387096774
1086.0279543875004,-409.6774193548387
1087.0279801281886,-393.5483870967742
1088.0280058688768,-374.1935483870967
1089.0280316095652,-374.1935483870967
1090.0280573502534,-351.61290322580646
1091.028083090942,-325.8064516129032
1092.02810883163,-296.7741935483871
1093.0281345723183,-264.516129032258
1094.0281603130068,-235.48387096774195
1095.028186053695,-219.3548387096774
1096.0282117943834,-187.09677419354836
1097.0282375350716,-164.51612903225805
1098.0282632757599,-167.74193548387098
1099.0282890164483,-190.32258064516128
1100.0283147571365,-177.41935483870967
1101.028340497825,-138.70967741935482
1102.0283662385132,-109.6774193548387
1103.0283919792014,-93.54838709677418
1104.0284177198898,-93.54838709677418
1105.028443460578,-93.54838709677418
1106.0284692012665,-99.99999999999999
1107.0284949419547,-109.6774193548387
1108.028520682643,-99.99999999999999
1109.0285464233314,-80.64516129032258
1110.0285721640196,-64.51612903225806
1111.028597904708,-51.61290322580645
1112.0286236453962,-41.935483870967744
1113.0286493860845,-38.70967741935483
1114.028675126773,-51.61290322580645
1115.028700867461,-83.87096774193549
1116.0287266081496,-99.99999999999999
1117.0287523488378,-122.58064516129032
1118.028778089526,-132.258064516129
1119.0288038302144,-116.12903225806453
1120.0288295709026,-112.9032258064516
1121.028855311591,-106.4516129032258
1122.0288810522793,-93.54838709677418
1123.0289067929675,-96.77419354838709
1124.028932533656,-109.6774193548387
1125.0289582743442,-106.4516129032258
1126.0289840150326,-99.99999999999999
1127.0290097557208,-90.32258064516128
1128.029035496409,-51.61290322580645
1129.0290612370975,-16.129032258064516
1130.0290869777857,-6.451612903225806
1131.0291127184742,-12.903225806451612
1132.0291384591624,-32.25806451612903
1133.0291641998506,-64.51612903225806
1134.029189940539,-77.41935483870967
1135.0292156812272,-61.29032258064516
1136.0292414219157,-48.387096774193544
1137.029267162604,-41.935483870967744
1138.0292929032921,-32.25806451612903
1139.0293186439806,-22.58064516129032
1140.0293443846688,-29.03225806451613
1141.0293701253572,-48.387096774193544
1142.0293958660454,-48.387096774193544
1143.0294216067336,-29.03225806451613
1144.029447347422,-9.677419354838708
1145.0294730881103,-9.677419354838708
1146.0294988287985,-9.677419354838708
1147.029524569487,-9.677419354838708
1148.0295503101752,-9.677419354838708
1149.0295760508636,-35.483870967741936
1150.0296017915518,-48.387096774193544
1151.02962753224,-64.51612903225806
1152.0296532729285,-51.61290322580645
1153.0296790136167,-12.903225806451612
1154.0297047543052,32.25806451612903
1155.0297304949934,48.387096774193544
1156.0297562356816,58.06451612903226
1157.02978197637,54.83870967741935
1158.0298077170582,38.70967741935483
1159.0298334577467,9.677419354838708
1160.029859198435,-3.225806451612903
1161.0298849391231,-16.129032258064516
1162.0299106798116,-38.70967741935483
1163.0299364204998,-48.387096774193544
1164.0299621611882,-61.29032258064516
1165.0299879018764,-58.06451612903226
1166.0300136425647,-48.387096774193544
1167.030039383253,-48.387096774193544
1168.0300651239413,-48.387096774193544
1169.0300908646298,-19.354838709677416
1170.030116605318,9.677419354838708
1171.0301423460062,6.451612903225806
1172.0301680866946,-6.451612903225806
1173.0301938273828,-19.354838709677416
1174.0302195680713,-19.354838709677416
1175.0302453087595,-16.129032258064516
1176.0302710494477,-9.677419354838708
1177.0302967901362,12.903225806451612
1178.0303225308244,22.58064516129032
1179.0303482715128,25.806451612903224
1180.030374012201,32.25806451612903
1181.0303997528893,29.03225806451613
1182.0304254935777,19.354838709677416
1183.030451234266,19.354838709677416
1184.0304769749544,6.451612903225806
1185.0305027156426,-9.677419354838708
1186.0305284563308,-25.806451612903224
1187.0305541970192,-32.25806451612903
1188.0305799377074,-41.935483870967744
1189.030605678396,-64.51612903225806
1190.030631419084,-61.29032258064516
1191.0306571597723,-45.16129032258064
1192.0306829004608,-29.03225806451613
1193.030708641149,0.0
1194.0307343818374,22.58064516129032
1195.0307601225256,45.16129032258064
1196.0307858632139,51.61290322580645
1197.0308116039023,58.06451612903226
1198.0308373445905,67.74193548387096
1199.030863085279,74.19354838709677
1200.0308888259672,61.29032258064516
1201.0309145666554,48.387096774193544
1202.0309403073438,35.483870967741936
1203.030966048032,35.483870967741936
1204.0309917887205,48.387096774193544
1205.0310175294087,54.83870967741935
1206.031043270097,61.29032258064516
1207.0310690107854,64.51612903225806
1208.0310947514736,67.74193548387096
1209.031120492162,64.51612903225806
1210.0311462328502,61.29032258064516
1211.0311719735384,90.32258064516128
1212.031197714227,122.58064516129032
1213.031223454915,129.03225806451613
1214.0312491956036,103.2258064516129
1215.0312749362918,80.64516129032258
1216.03130067698,67.74193548387096
1217.0313264176684,51.61290322580645
1218.0313521583566,41.935483870967744
1219.031377899045,35.483870967741936
1220.0314036397333,29.03225806451613
1221.0314293804215,22.58064516129032
1222.03145512111,38.70967741935483
1223.0314808617982,61.29032258064516
1224.0315066024864,61.29032258064516
1225.0315323431748,51.61290322580645
1226.031558083863,51.61290322580645
1227.0315838245515,48.387096774193544
1228.0316095652397,48.387096774193544
1229.031635305928,38.70967741935483
1230.0316610466164,38.70967741935483
1231.0316867873046,38.70967741935483
1232.031712527993,48.387096774193544
1233.0317382686812,38.70967741935483
1234.0317640093695,41.935483870967744
1235.031789750058,48.387096774193544
1236.031815490746,41.935483870967744
1237.0318412314346,41.935483870967744
1238.0318669721228,64.51612903225806
1239.031892712811,83.87096774193549
1240.0319184534994,87.09677419354838
1241.0319441941876,70.96774193548387
1242.031969934876,45.16129032258064
1243.0319956755643,22.58064516129032
1244.0320214162525,25.806451612903224
1245.032047156941,51.61290322580645
1246.0320728976292,61.29032258064516
1247.0320986383176,67.74193548387096
1248.0321243790058,87.09677419354838
1249.032150119694,112.9032258064516
1250.0321758603825,129.03225806451613
1251.0322016010707,132.258064516129
1252.0322273417592,109.6774193548387
1253.0322530824474,87.09677419354838
1254.0322788231356,77.41935483870967
1255.032304563824,99.99999999999999
1256.0323303045122,132.258064516129
1257.0323560452007,154.83870967741933
1258.032381785889,145.16129032258067
1259.0324075265771,125.80645161290322
1260.0324332672656,129.03225806451613
1261.0324590079538,125.80645161290322
1262.0324847486422,122.58064516129032
1263.0325104893304,129.03225806451613
1264.0325362300186,138.70967741935482
1265.032561970707,141.93548387096774
1266.0325877113953,141.93548387096774
1267.0326134520838,138.70967741935482
1268.032639192772,132.258064516129
1269.0326649334602,116.12903225806453
1270.0326906741486,96.77419354838709
1271.0327164148368,93.54838709677418
1272.0327421555253,93.54838709677418
1273.0327678962135,106.4516129032258
1274.0327936369017,116.12903225806453
1275.0328193775902,116.12903225806453
1276.0328451182784,119.35483870967742
1277.0328708589668,109.6774193548387
1278.032896599655,87.09677419354838
1279.0329223403432,61.29032258064516
1280.0329480810317,45.16129032258064
1281.03297382172,45.16129032258064
1282.0329995624083,74.19354838709677
1283.0330253030966,106.4516129032258
1284.0330510437848,96.77419354838709
1285.0330767844732,77.41935483870967
1286.0331025251614,61.29032258064516
1287.0331282658499,64.51612903225806
1288.033154006538,58.06451612903226
1289.0331797472263,45.16129032258064
1290.0332054879148,19.354838709677416
1291.033231228603,12.903225806451612
1292.0332569692914,9.677419354838708
1293.0332827099796,19.354838709677416
1294.0333084506678,38.70967741935483
1295.0333341913563,48.387096774193544
1296.0333599320445,38.70967741935483
1297.033385672733,41.935483870967744
1298.0334114134212,58.06451612903226
1299.0334371541094,80.64516129032258
1300.0334628947978,90.32258064516128
1301.033488635486,99.99999999999999
1302.0335143761743,90.32258064516128
1303.0335401168627,77.41935483870967
1304.033565857551,77.41935483870967
1305.0335915982394,83.87096774193549
1306.0336173389276,93.54838709677418
1307.0336430796158,93.54838709677418
1308.0336688203042,96.77419354838709
1309.0336945609924,90.32258064516128
1310.033720301681,74.19354838709677
1311.033746042369,74.19354838709677
1312.0337717830573,67.74193548387096
1313.0337975237458,67.74193548387096
1314.033823264434,67.74193548387096
1315.0338490051224,58.06451612903226
1316.0338747458106,48.387096774193544
1317.0339004864989,41.935483870967744
1318.0339262271873,38.70967741935483
1319.0339519678755,32.25806451612903
1320.033977708564,38.70967741935483
1321.0340034492522,54.83870967741935
1322.0340291899404,54.83870967741935
1323.0340549306288,67.74193548387096
1324.034080671317,77.41935483870967
1325.0341064120055,77.41935483870967
1326.0341321526937,74.19354838709677
1327.034157893382,51.61290322580645
1328.0341836340704,51.61290322580645
1329.0342093747586,48.387096774193544
1330.034235115447,48.387096774193544
1331.0342608561352,45.16129032258064
1332.0342865968234,12.903225806451612
1333.034312337512,-9.677419354838708
1334.0343380782,-19.354838709677416
1335.0343638188886,-25.806451612903224
1336.0343895595768,-22.58064516129032
1337.034415300265,-12.903225806451612
1338.0344410409534,-16.129032258064516
1339.0344667816416,-25.806451612903224
1340.03449252233,-54.83870967741935
1341.0345182630183,-77.41935483870967
1342.0345440037065,-83.87096774193549
1343.034569744395,-80.64516129032258
1344.0345954850832,-61.29032258064516
1345.0346212257716,-64.51612903225806
1346.0346469664598,-67.74193548387096
1347.034672707148,-64.51612903225806
1348.0346984478365,-58.06451612903226
1349.0347241885247,-67.74193548387096
1350.0347499292131,-90.32258064516128
1351.0347756699014,-119.35483870967742
1352.0348014105896,-132.258064516129
1353.034827151278,-129.03225806451613
1354.0348528919662,-116.12903225806453
1355.0348786326547,-106.4516129032258
1356.034904373343,-87.09677419354838
1357.034930114031,-67.74193548387096
1358.0349558547196,-51.61290322580645
1359.0349815954078,-29.03225806451613
1360.0350073360962,-12.903225806451612
1361.0350330767844,-6.451612903225806
1362.0350588174726,-6.451612903225806
1363.035084558161,-6.451612903225806
1364.0351102988493,-9.677419354838708
1365.0351360395377,-12.903225806451612
1366.035161780226,-25.806451612903224
1367.0351875209142,-51.61290322580645
1368.0352132616026,-77.41935483870967
1369.0352390022908,-109.6774193548387
1370.0352647429793,-132.258064516129
1371.0352904836675,-135.48387096774192
1372.0353162243557,-138.70967741935482
1373.0353419650442,-138.70967741935482
1374.0353677057324,-119.35483870967742
1375.0353934464208,-99.99999999999999
1376.035419187109,-109.6774193548387
1377.0354449277972,-119.35483870967742
1378.0354706684857,-112.9032258064516
1379.035496409174,-109.6774193548387
1380.0355221498621,-109.6774193548387
1381.0355478905506,-99.99999999999999
1382.0355736312388,-103.2258064516129
1383.0355993719272,-112.9032258064516
1384.0356251126154,-119.35483870967742
1385.0356508533037,-109.6774193548387
1386.035676593992,-99.99999999999999
1387.0357023346803,-103.2258064516129
1388.0357280753688,-106.4516129032258
1389.035753816057,-119.35483870967742
1390.0357795567452,-132.258064516129
1391.0358052974336,-138.70967741935482
1392.0358310381218,-129.03225806451613
1393.0358567788103,-96.77419354838709
1394.0358825194985,-93.54838709677418
1395.0359082601867,-112.9032258064516
1396.0359340008752,-125.80645161290322
1397.0359597415634,-132.258064516129
1398.0359854822518,-148.38709677419354
1399.03601122294,-161.29032258064515
1400.0360369636282,-141.93548387096774
1401.0360627043167,-119.35483870967742
1402.036088445005,-93.54838709677418
1403.0361141856934,-67.74193548387096
1404.0361399263816,-64.51612903225806
1405.0361656670698,-67.74193548387096
1406.0361914077582,-48.387096774193544
1407.0362171484464,-32.25806451612903
1408.0362428891349,-22.58064516129032
1409.036268629823,-32.25806451612903
1410.0362943705113,-41.935483870967744
1411.0363201111998,-48.387096774193544
1412.036345851888,-48.387096774193544
1413.0363715925764,-48.387096774193544
1414.0363973332646,-48.387096774193544
1415.0364230739528,-48.387096774193544
1416.0364488146413,-58.06451612903226
1417.0364745553295,-70.96774193548387
1418.036500296018,-90.32258064516128
1419.0365260367062,-119.35483870967742
1420.0365517773944,-135.48387096774192
1421.0365775180828,-129.03225806451613
1422.036603258771,-96.77419354838709
1423.0366289994595,-70.96774193548387
1424.0366547401477,-64.51612903225806
1425.036680480836,-80.64516129032258
1426.0367062215244,-90.32258064516128
1427.0367319622126,-87.09677419354838
1428.036757702901,-64.51612903225806
1429.0367834435892,-41.935483870967744
1430.0368091842774,-19.354838709677416
1431.036834924966,-19.354838709677416
1432.036860665654,-25.806451612903224
1433.0368864063425,-38.70967741935483
1434.0369121470308,-48.387096774193544
1435.036937887719,-41.935483870967744
1436.0369636284074,-45.16129032258064
1437.0369893690956,-67.74193548387096
1438.037015109784,-90.32258064516128
1439.0370408504723,-80.64516129032258
1440.0370665911605,-58.06451612903226
1441.037092331849,-45.16129032258064
1442.0371180725372,-45.16129032258064
1443.0371438132256,-25.806451612903224
1444.0371695539138,-12.903225806451612
1445.037195294602,-32.25806451612903
1446.0372210352905,-38.70967741935483
1447.0372467759787,-22.58064516129032
1448.0372725166671,-29.03225806451613
1449.0372982573554,-41.935483870967744
1450.0373239980436,-32.25806451612903
1451.037349738732,-9.677419354838708
1452.0373754794202,-9.677419354838708
1453.0374012201087,-16.129032258064516
1454.037426960797,-22.58064516129032
1455.037452701485,-29.03225806451613
1456.0374784421736,-29.03225806451613
1457.0375041828618,-35.483870967741936
1458.03752992355,-35.483870967741936
1459.0375556642384,-32.25806451612903
1460.0375814049266,-25.806451612903224
1461.037607145615,-25.806451612903224
1462.0376328863033,-35.483870967741936
1463.0376586269915,-35.483870967741936
1464.03768436768,-22.58064516129032
1465.0377101083682,-29.03225806451613
1466.0377358490566,-41.935483870967744
1467.0377615897448,-58.06451612903226
1468.037787330433,-64.51612903225806
1469.0378130711215,-77.41935483870967
1470.0378388118097,-93.54838709677418
1471.0378645524981,-93.54838709677418
1472.0378902931864,-87.09677419354838
1473.0379160338746,-77.41935483870967
1474.037941774563,-54.83870967741935
1475.0379675152512,-38.70967741935483
1476.0379932559397,-32.25806451612903
1477.038018996628,-12.903225806451612
1478.038044737316,3.225806451612903
1479.0380704780046,25.806451612903224
1480.0380962186928,58.06451612903226
1481.0381219593812,64.51612903225806
1482.0381477000694,41.935483870967744
1483.0381734407576,3.225806451612903
1484.038199181446,-35.483870967741936
1485.0382249221343,-45.16129032258064
1486.0382506628227,-48.387096774193544
1487.038276403511,-67.74193548387096
1488.0383021441992,-70.96774193548387
1489.0383278848876,-74.19354838709677
1490.0383536255758,-74.19354838709677
1491.0383793662643,-77.41935483870967
1492.0384051069525,-64.51612903225806
1493.0384308476407,-58.06451612903226
1494.0384565883292,-48.387096774193544
1495.0384823290174,-29.03225806451613
1496.0385080697058,-16.129032258064516
1497.038533810394,-25.806451612903224
1498.0385595510822,-29.03225806451613
1499.0385852917707,0.0
1500.038611032459,19.354838709677416
1501.0386367731473,16.129032258064516
1502.0386625138356,19.354838709677416
1503.0386882545238,16.129032258064516
1504.0387139952122,-12.903225806451612
1505.0387397359004,-25.806451612903224
1506.0387654765889,-25.806451612903224
1507.038791217277,-25.806451612903224
1508.0388169579653,-12.903225806451612
1509.0388426986538,-12.903225806451612
1510.038868439342,-22.58064516129032
1511.0388941800304,-32.25806451612903
1512.0389199207186,-25.806451612903224
1513.0389456614068,3.225806451612903
1514.0389714020953,19.354838709677416
1515.0389971427835,29.03225806451613
1516.039022883472,16.129032258064516
1517.0390486241602,-9.677419354838708
1518.0390743648484,-29.03225806451613
1519.0391001055368,-41.935483870967744
1520.039125846225,-38.70967741935483
1521.0391515869135,-22.58064516129032
1522.0391773276017,-9.677419354838708
1523.03920306829,12.903225806451612
1524.0392288089784,22.58064516129032
1525.0392545496666,19.354838709677416
1526.039280290355,22.58064516129032
1527.0393060310432,25.806451612903224
1528.0393317717314,19.354838709677416
1529.0393575124199,3.225806451612903
1530.039383253108,-9.677419354838708
1531.0394089937965,-16.129032258064516
1532.0394347344848,-22.58064516129032
1533.039460475173,-35.483870967741936
1534.0394862158614,-64.51612903225806
1535.0395119565496,-87.09677419354838
1536.0395376972378,-90.32258064516128
1537.0395634379263,-80.64516129032258
1538.0395891786145,-48.387096774193544
1539.039614919303,-32.25806451612903
1540.0396406599912,-38.70967741935483
1541.0396664006794,-45.16129032258064
1542.0396921413678,-19.354838709677416
1543.039717882056,16.129032258064516
1544.0397436227445,45.16129032258064
1545.0397693634327,41.935483870967744
1546.039795104121,16.129032258064516
1547.0398208448094,-3.225806451612903
1548.0398465854976,-12.903225806451612
1549.039872326186,-12.903225806451612
1550.0398980668742,-16.129032258064516
1551.0399238075624,3.225806451612903
1552.039949548251,22.58064516129032
1553.039975288939,41.935483870967744
1554.0400010296275,29.03225806451613
1555.0400267703158,-6.451612903225806
1556.040052511004,-22.58064516129032
1557.0400782516924,-32.25806451612903
1558.0401039923806,-35.483870967741936
1559.040129733069,-29.03225806451613
1560.0401554737573,-25.806451612903224
1561.0401812144455,0.0
1562.040206955134,19.354838709677416
1563.0402326958222,22.58064516129032
1564.0402584365106,9.677419354838708
1565.0402841771988,-9.677419354838708
1566.040309917887,-16.129032258064516
1567.0403356585755,-12.903225806451612
1568.0403613992637,-19.354838709677416
1569.0403871399521,-41.935483870967744
1570.0404128806404,-61.29032258064516
1571.0404386213286,-61.29032258064516
1572.040464362017,-51.61290322580645
1573.0404901027052,-32.25806451612903
1574.0405158433937,-25.806451612903224
1575.040541584082,-16.129032258064516
1576.04056732477,3.225806451612903
1577.0405930654586,12.903225806451612
1578.0406188061468,-6.451612903225806
1579.0406445468352,-35.483870967741936
1580.0406702875234,-38.70967741935483
1581.0406960282116,-29.03225806451613
1582.0407217689,-19.354838709677416
1583.0407475095883,-12.903225806451612
1584.0407732502767,-9.677419354838708
1585.040798990965,-12.903225806451612
1586.0408247316532,-22.58064516129032
1587.0408504723416,-16.129032258064516
1588.0408762130298,-6.451612903225806
1589.0409019537183,6.451612903225806
1590.0409276944065,-3.225806451612903
1591.0409534350947,-12.903225806451612
1592.0409791757831,-19.354838709677416
1593.0410049164714,-25.806451612903224
1594.0410306571598,-35.483870967741936
1595.041056397848,-41.935483870967744
1596.0410821385362,-29.03225806451613
1597.0411078792247,-9.677419354838708
1598.041133619913,3.225806451612903
1599.0411593606013,-6.451612903225806
1600.0411851012896,-9.677419354838708
1601.0412108419778,3.225806451612903
1602.0412365826662,9.677419354838708
1603.0412623233544,3.225806451612903
1604.0412880640429,-22.58064516129032
1605.041313804731,-41.935483870967744
1606.0413395454193,-35.483870967741936
1607.0413652861077,-32.25806451612903
1608.041391026796,-29.03225806451613
1609.0414167674844,-16.129032258064516
1610.0414425081726,0.0
1611.0414682488608,0.0
1612.0414939895493,-12.903225806451612
1613.0415197302375,-9.677419354838708
1614.041545470926,-9.677419354838708
1615.0415712116142,12.903225806451612
1616.0415969523024,54.83870967741935
1617.0416226929908,61.29032258064516
1618.041648433679,58.06451612903226
1619.0416741743672,45.16129032258064
1620.0416999150557,32.25806451612903
1621.041725655744,19.354838709677416
1622.0417513964323,0.0
1623.0417771371206,-19.354838709677416
1624.0418028778088,-35.483870967741936
1625.0418286184972,-41.935483870967744
1626.0418543591854,-41.935483870967744
1627.0418800998739,-32.25806451612903
1628.041905840562,-32.25806451612903
1629.0419315812503,-32.25806451612903
1630.0419573219388,-29.03225806451613
1631.041983062627,-19.354838709677416
1632.0420088033154,-12.903225806451612
1633.0420345440036,3.225806451612903
1634.0420602846918,6.451612903225806
1635.0420860253803,3.225806451612903
1636.0421117660685,0.0
1637.042137506757,-16.129032258064516
1638.0421632474452,-35.483870967741936
1639.0421889881334,-35.483870967741936
1640.0422147288218,-32.25806451612903
1641.04224046951,-35.483870967741936
1642.0422662101985,-22.58064516129032
1643.0422919508867,-9.677419354838708
1644.042317691575,-6.451612903225806
1645.0423434322634,3.225806451612903
1646.0423691729516,16.129032258064516
1647.04239491364,22.58064516129032
1648.0424206543282,41.935483870967744
1649.0424463950164,45.16129032258064
1650.0424721357049,32.25806451612903
1651.042497876393,41.935483870967744
1652.0425236170815,32.25806451612903
1653.0425493577698,22.58064516129032
1654.042575098458,-6.451612903225806
1655.0426008391464,-12.903225806451612
1656.0426265798346,-16.129032258064516
1657.042652320523,-22.58064516129032
1658.0426780612113,-25.806451612903224
1659.0427038018995,-25.806451612903224
1660.042729542588,-25.806451612903224
1661.0427552832762,-25.806451612903224
1662.0427810239646,-16.129032258064516
1663.0428067646528,-3.225806451612903
1664.042832505341,-6.451612903225806
1665.0428582460295,0.0
1666.0428839867177,-3.225806451612903
1667.0429097274061,-16.129032258064516
1668.0429354680944,-25.806451612903224
1669.0429612087826,-32.25806451612903
1670.042986949471,-45.16129032258064
1671.0430126901592,-51.61290322580645
1672.0430384308477,-48.387096774193544
1673.043064171536,-35.483870967741936
1674.043089912224,-19.354838709677416
1675.0431156529125,-3.225806451612903
1676.0431413936008,-3.225806451612903
1677.0431671342892,-22.58064516129032
1678.0431928749774,-41.935483870967744
1679.0432186156656,-41.935483870967744
1680.043244356354,-41.935483870967744
1681.0432700970423,-38.70967741935483
1682.0432958377307,-35.483870967741936
1683.043321578419,-35.483870967741936
1684.0433473191072,-45.16129032258064
1685.0433730597956,-48.387096774193544
1686.0433988004838,-41.935483870967744
1687.0434245411723,-35.483870967741936
1688.0434502818605,-25.806451612903224
1689.0434760225487,-19.354838709677416
1690.0435017632371,-12.903225806451612
1691.0435275039254,-22.58064516129032
1692.0435532446138,-25.806451612903224
1693.043578985302,-12.903225806451612
1694.0436047259902,3.225806451612903
1695.0436304666787,16.129032258064516
1696.043656207367,19.354838709677416
1697.043681948055,16.129032258064516
1698.0437076887436,3.225806451612903
1699.0437334294318,-16.129032258064516
1700.0437591701202,-25.806451612903224
1701.0437849108084,-29.03225806451613
1702.0438106514966,-22.58064516129032
1703.043836392185,-25.806451612903224
1704.0438621328733,-58.06451612903226
1705.0438878735617,-70.96774193548387
1706.04391361425,-64.51612903225806
1707.0439393549382,-67.74193548387096
1708.0439650956266,-70.96774193548387
1709.0439908363148,-51.61290322580645
1710.0440165770033,-25.806451612903224
1711.0440423176915,-22.58064516129032
1712.0440680583797,-35.483870967741936
1713.0440937990682,-41.935483870967744
1714.0441195397564,-45.16129032258064
1715.0441452804448,-58.06451612903226
1716.044171021133,-67.74193548387096
1717.0441967618212,-77.41935483870967
1718.0442225025097,-67.74193548387096
1719.044248243198,-61.29032258064516
1720.0442739838863,-54.83870967741935
1721.0442997245746,-45.16129032258064
1722.0443254652628,-38.70967741935483
1723.0443512059512,-29.03225806451613
1724.0443769466394,-25.806451612903224
1725.0444026873279,-22.58064516129032
1726.044428428016,-19.354838709677416
1727.0444541687043,-9.677419354838708
1728.0444799093927,0.0
1729.044505650081,22.58064516129032
1730.0445313907694,45.16129032258064
1731.0445571314576,58.06451612903226
1732.0445828721458,48.387096774193544
1733.0446086128343,19.354838709677416
1734.0446343535225,-6.451612903225806
1735.044660094211,-25.806451612903224
1736.0446858348992,-35.483870967741936
1737.0447115755874,-51.61290322580645
1738.0447373162758,-77.41935483870967
1739.044763056964,-77.41935483870967
1740.0447887976525,-51.61290322580645
1741.0448145383407,-22.58064516129032
1742.044840279029,-9.677419354838708
1743.0448660197173,-6.451612903225806
1744.0448917604056,-25.806451612903224
1745.044917501094,-16.129032258064516
1746.0449432417822,0.0
1747.0449689824704,-6.451612903225806
1748.0449947231589,-9.677419354838708
1749.045020463847,-35.483870967741936
1750.0450462045355,-54.83870967741935
1751.0450719452238,-61.29032258064516
1752.045097685912,-70.96774193548387
1753.0451234266004,-83.87096774193549
1754.0451491672886,-103.2258064516129
1755.045174907977,-112.9032258064516
1756.0452006486653,-103.2258064516129
1757.0452263893535,-87.09677419354838
1758.045252130042,-83.87096774193549
1759.0452778707302,-74.19354838709677
1760.0453036114186,-58.06451612903226
1761.0453293521068,-45.16129032258064
1762.045355092795,-29.03225806451613
1763.0453808334835,-16.129032258064516
1764.0454065741717,-12.903225806451612
1765.0454323148601,-25.806451612903224
1766.0454580555484,-19.354838709677416
1767.0454837962366,-12.903225806451612
1768.045509536925,-22.58064516129032
1769.0455352776132,-22.58064516129032
1770.0455610183017,-6.451612903225806
1771.0455867589899,-9.677419354838708
1772.045612499678,-25.806451612903224
1773.0456382403665,-41.935483870967744
1774.0456639810548,-48.387096774193544
1775.045689721743,-41.935483870967744
1776.0457154624314,-35.483870967741936
1777.0457412031196,-22.58064516129032
1778.045766943808,-3.225806451612903
1779.0457926844963,16.129032258064516
1780.0458184251845,25.806451612903224
1781.045844165873,29.03225806451613
1782.0458699065612,25.806451612903224
1783.0458956472496,25.806451612903224
1784.0459213879378,32.25806451612903
1785.045947128626,22.58064516129032
1786.0459728693145,16.129032258064516
1787.0459986100027,16.129032258064516
1788.0460243506911,25.806451612903224
1789.0460500913794,35.483870967741936
1790.0460758320676,41.935483870967744
1791.046101572756,51.61290322580645
1792.0461273134442,48.387096774193544
1793.0461530541327,48.387096774193544
1794.046178794821,54.83870967741935
1795.046204535509,58.06451612903226
1796.0462302761975,61.29032258064516
1797.0462560168858,51.61290322580645
1798.0462817575742,29.03225806451613
1799.0463074982624,12.903225806451612
1800.0463332389506,16.129032258064516
1801.046358979639,6.451612903225806
1802.0463847203273,0.0
1803.0464104610157,12.903225806451612
1804.046436201704,25.806451612903224
1805.0464619423922,29.03225806451613
1806.0464876830806,12.903225806451612
1807.0465134237688,-12.903225806451612
1808.0465391644573,-6.451612903225806
1809.0465649051455,32.25806451612903
1810.0465906458337,77.41935483870967
1811.0466163865221,112.9032258064516
1812.0466421272104,116.12903225806453
1813.0466678678988,119.35483870967742
1814.046693608587,103.2258064516129
1815.0467193492752,96.77419354838709
1816.0467450899637,99.99999999999999
1817.046770830652,83.87096774193549
1818.0467965713403,61.29032258064516
1819.0468223120286,41.935483870967744
1820.0468480527168,45.16129032258064
1821.0468737934052,48.387096774193544
1822.0468995340934,35.483870967741936
1823.0469252747819,19.354838709677416
1824.04695101547,12.903225806451612
1825.0469767561583,3.225806451612903
1826.0470024968467,-3.225806451612903
1827.047028237535,-9.677419354838708
1828.0470539782234,-19.354838709677416
1829.0470797189116,-29.03225806451613
1830.0471054595998,-35.483870967741936
1831.0471312002883,-41.935483870967744
1832.0471569409765,-45.16129032258064
1833.047182681665,-45.16129032258064
1834.0472084223532,-58.06451612903226
1835.0472341630414,-80.64516129032258
1836.0472599037298,-74.19354838709677
1837.047285644418,-48.387096774193544
1838.0473113851065,-38.70967741935483
1839.0473371257947,-41.935483870967744
1840.047362866483,-48.387096774193544
1841.0473886071713,-45.16129032258064
1842.0474143478596,-38.70967741935483
1843.047440088548,-35.483870967741936
1844.0474658292362,-22.58064516129032
1845.0474915699244,-16.129032258064516
1846.0475173106129,6.451612903225806
1847.047543051301,9.677419354838708
1848.0475687919895,-16.129032258064516
1849.0475945326777,-41.935483870967744
1850.047620273366,-35.483870967741936
1851.0476460140544,-35.483870967741936
1852.0476717547426,-61.29032258064516
1853.0476974954308,-77.41935483870967
1854.0477232361193,-90.32258064516128
1855.0477489768075,-83.87096774193549
1856.047774717496,-64.51612903225806
1857.0478004581842,-38.70967741935483
1858.0478261988724,-22.58064516129032
1859.0478519395608,-16.129032258064516
1860.047877680249,-19.354838709677416
1861.0479034209375,-19.354838709677416
1862.0479291616257,-19.354838709677416
1863.047954902314,-16.129032258064516
1864.0479806430023,-9.677419354838708
1865.0480063836906,0.0
1866.048032124379,-3.225806451612903
1867.0480578650672,-16.129032258064516
1868.0480836057554,-12.903225806451612
1869.0481093464439,6.451612903225806
1870.048135087132,25.806451612903224
1871.0481608278205,22.58064516129032
1872.0481865685088,9.677419354838708
1873.048212309197,9.677419354838708
1874.0482380498854,22.58064516129032
1875.0482637905736,25.806451612903224
1876.048289531262,35.483870967741936
1877.0483152719503,41.935483870967744
1878.0483410126385,32.25806451612903
1879.048366753327,25.806451612903224
1880.0483924940152,25.806451612903224
1881.0484182347036,38.70967741935483
1882.0484439753918,48.387096774193544
1883.04846971608,41.935483870967744
1884.0484954567685,29.03225806451613
1885.0485211974567,19.354838709677416
1886.0485469381451,16.129032258064516
1887.0485726788334,16.129032258064516
1888.0485984195216,38.70967741935483
1889.04862416021,67.74193548387096
1890.0486499008982,109.6774193548387
1891.0486756415867,141.93548387096774
1892.0487013822749,170.96774193548387
1893.048727122963,199.99999999999997
1894.0487528636515,219.3548387096774
1895.0487786043398,267.7419354838709
1896.0488043450282,322.5806451612903
1897.0488300857164,367.741935483871
1898.0488558264046,412.9032258064516
1899.048881567093,435.4838709677419
1900.0489073077813,438.7096774193548
1901.0489330484697,441.9354838709677
1902.048958789158,477.4193548387097
1903.0489845298462,522.5806451612904
1904.0490102705346,551.6129032258063
1905.0490360112228,574.1935483870968
1906.0490617519113,587.0967741935483
1907.0490874925995,603.2258064516128
1908.0491132332877,609.6774193548387
1909.0491389739761,593.5483870967741
1910.0491647146644,580.6451612903227
1911.0491904553528,570.9677419354838
1912.049216196041,561.290322580645
1913.0492419367292,535.4838709677418
1914.0492676774177,487.0967741935484
1915.049293418106,419.3548387096774
1916.0493191587943,364.51612903225805
1917.0493448994825,306.4516129032258
1918.0493706401708,241.93548387096774
1919.0493963808592,170.96774193548387
1920.0494221215474,103.2258064516129
1921.0494478622359,45.16129032258064
1922.049473602924,-22.58064516129032
1923.0494993436123,-103.2258064516129
1924.0495250843007,-170.96774193548387
1925.049550824989,-222.5806451612903
1926.0495765656774,-270.96774193548384
1927.0496023063656,-316.1290322580645
1928.0496280470538,-351.61290322580646
1929.0496537877423,-374.1935483870967
1930.0496795284305,-374.1935483870967
1931.0497052691187,-358.06451612903226
1932.0497310098071,-354.83870967741933
1933.0497567504954,-354.83870967741933
1934.0497824911838,-358.06451612903226
1935.049808231872,-338.7096774193548
1936.0498339725602,-316.1290322580645
1937.0498597132487,-309.67741935483866
1938.049885453937,-300.0
1939.0499111946253,-280.6451612903225
1940.0499369353136,-254.83870967741933
1941.0499626760018,-209.6774193548387
1942.0499884166902,-167.74193548387098
1943.0500141573784,-141.93548387096774
1944.0500398980669,-119.35483870967742
1945.050065638755,-109.6774193548387
1946.0500913794433,-116.12903225806453
1947.0501171201317,-132.258064516129
1948.05014286082,-138.70967741935482
1949.0501686015084,-141.93548387096774
1950.0501943421966,-167.74193548387098
1951.0502200828848,-174.19354838709677
1952.0502458235733,-170.96774193548387
1953.0502715642615,-154.83870967741933
1954.05029730495,-129.03225806451613
1955.0503230456382,-112.9032258064516
1956.0503487863264,-87.09677419354838
1957.0503745270148,-64.51612903225806
1958.050400267703,-48.387096774193544
1959.0504260083915,-58.06451612903226
1960.0504517490797,-74.19354838709677
1961.050477489768,-77.41935483870967
1962.0505032304563,-64.51612903225806
1963.0505289711446,-64.51612903225806
1964.050554711833,-64.51612903225806
1965.0505804525212,-64.51612903225806
1966.0506061932094,-74.19354838709677
1967.0506319338979,-96.77419354838709
1968.050657674586,-119.35483870967742
1969.0506834152745,-129.03225806451613
1970.0507091559627,-132.258064516129
1971.050734896651,-138.70967741935482
1972.0507606373394,-135.48387096774192
1973.0507863780276,-138.70967741935482
1974.050812118716,-129.03225806451613
1975.0508378594043,-87.09677419354838
1976.0508636000925,-58.06451612903226
1977.050889340781,-67.74193548387096
1978.0509150814692,-74.19354838709677
1979.0509408221576,-77.41935483870967
1980.0509665628458,-83.87096774193549
1981.050992303534,-80.64516129032258
1982.0510180442225,-77.41935483870967
1983.0510437849107,-83.87096774193549
1984.0510695255991,-109.6774193548387
1985.0510952662873,-132.258064516129
1986.0511210069756,-125.80645161290322
1987.051146747664,-109.6774193548387
1988.0511724883522,-77.41935483870967
1989.0511982290407,-61.29032258064516
1990.0512239697289,-70.96774193548387
1991.051249710417,-74.19354838709677
1992.0512754511055,-70.96774193548387
1993.0513011917938,-51.61290322580645
1994.0513269324822,-41.935483870967744
1995.0513526731704,-35.483870967741936
1996.0513784138586,-16.129032258064516
1997.051404154547,-3.225806451612903
1998.0514298952353,3.225806451612903
1999.0514556359237,0.0
2000.051481376612,-9.677419354838708
2001.0515071173002,-22.58064516129032
2002.0515328579886,-29.03225806451613
2003.0515585986768,-29.03225806451613
2004.0515843393653,-45.16129032258064
2005.0516100800535,-74.19354838709677
2006.0516358207417,-96.77419354838709
2007.0516615614301,-119.35483870967742
2008.0516873021184,-138.70967741935482
2009.0517130428066,-138.70967741935482
2010.051738783495,-99.99999999999999
2011.0517645241832,-61.29032258064516
2012.0517902648717,-22.58064516129032
2013.0518160055599,-3.225806451612903
2014.051841746248,-6.451612903225806
2015.0518674869365,-12.903225806451612
2016.0518932276248,-25.806451612903224
2017.0519189683132,-48.387096774193544
2018.0519447090014,-51.61290322580645
2019.0519704496896,-54.83870967741935
2020.051996190378,-58.06451612903226
2021.0520219310663,-51.61290322580645
2022.0520476717547,-54.83870967741935
2023.052073412443,-41.935483870967744
2024.0520991531312,-38.70967741935483
2025.0521248938196,-32.25806451612903
2026.0521506345078,-25.806451612903224
2027.0521763751963,-22.58064516129032
2028.0522021158845,-16.129032258064516
2029.0522278565727,-9.677419354838708
2030.0522535972611,-16.129032258064516
2031.0522793379494,-25.806451612903224
2032.0523050786378,-29.03225806451613
2033.052330819326,-22.58064516129032
2034.0523565600142,-16.129032258064516
2035.0523823007027,-25.806451612903224
2036.052408041391,-32.25806451612903
2037.0524337820793,-41.935483870967744
2038.0524595227675,-58.06451612903226
2039.0524852634558,-74.19354838709677
2040.0525110041442,-74.19354838709677
2041.0525367448324,-48.387096774193544
2042.0525624855209,-12.903225806451612
2043.052588226209,9.677419354838708
2044.0526139668973,0.0
2045.0526397075857,-6.451612903225806
2046.052665448274,-3.225806451612903
2047.0526911889624,-9.677419354838708
2048.0527169296506,-16.129032258064516
2049.052742670339,-22.58064516129032
2050.052768411027,-22.58064516129032
2051.0527941517157,-19.354838709677416
2052.052819892404,0.0
2053.052845633092,16.129032258064516
2054.0528713737804,32.25806451612903
2055.0528971144686,35.483870967741936
2056.0529228551572,38.70967741935483
2057.0529485958455,48.387096774193544
2058.0529743365337,38.70967741935483
2059.053000077222,9.677419354838708
2060.05302581791,-12.903225806451612
2061.053051558599,-22.58064516129032
2062.053077299287,-35.483870967741936
2063.053103039975,-38.70967741935483
2064.0531287806634,-32.25806451612903
2065.0531545213516,-12.903225806451612
2066.0531802620403,-3.225806451612903
2067.0532060027285,-9.677419354838708
2068.0532317434167,-22.58064516129032
2069.053257484105,-22.58064516129032
2070.053283224793,-41.935483870967744
2071.053308965482,-58.06451612903226
2072.05333470617,-58.06451612903226
2073.0533604468583,-38.70967741935483
2074.0533861875465,-19.354838709677416
2075.0534119282347,-9.677419354838708
2076.0534376689234,-3.225806451612903
2077.0534634096116,16.129032258064516
2078.0534891503,12.903225806451612
2079.053514890988,0.0
2080.0535406316762,-9.677419354838708
2081.053566372365,12.903225806451612
2082.053592113053,38.70967741935483
2083.0536178537413,54.83870967741935
2084.0536435944296,64.51612903225806
2085.053669335118,58.06451612903226
2086.0536950758064,41.935483870967744
2087.0537208164947,22.58064516129032
2088.053746557183,3.225806451612903
2089.053772297871,0.0
2090.0537980385593,9.677419354838708
2091.053823779248,6.451612903225806
2092.053849519936,-3.225806451612903
2093.0538752606244,3.225806451612903
2094.0539010013126,12.903225806451612
2095.053926742001,38.70967741935483
2096.0539524826895,74.19354838709677
2097.0539782233777,93.54838709677418
2098.054003964066,106.4516129032258
2099.054029704754,109.6774193548387
2100.0540554454424,93.54838709677418
2101.054081186131,74.19354838709677
2102.0541069268193,58.06451612903226
2103.0541326675075,54.83870967741935
2104.0541584081957,54.83870967741935
2105.054184148884,38.70967741935483
2106.0542098895726,16.129032258064516
2107.054235630261,9.677419354838708
2108.054261370949,3.225806451612903
2109.054287111637,9.677419354838708
2110.0543128523254,19.354838709677416
2111.054338593014,32.25806451612903
2112.0543643337023,54.83870967741935
2113.0543900743905,67.74193548387096
2114.0544158150788,67.74193548387096
2115.054441555767,74.19354838709677
2116.0544672964556,70.96774193548387
2117.054493037144,64.51612903225806
2118.054518777832,58.06451612903226
2119.0545445185203,48.387096774193544
2120.0545702592085,29.03225806451613
2121.054595999897,6.451612903225806
2122.0546217405854,-12.903225806451612
2123.0546474812736,-16.129032258064516
2124.054673221962,-16.129032258064516
2125.05469896265,-16.129032258064516
2126.0547247033387,0.0
2127.054750444027,29.03225806451613
2128.054776184715,54.83870967741935
2129.0548019254034,80.64516129032258
2130.0548276660916,106.4516129032258
2131.05485340678,122.58064516129032
2132.0548791474685,112.9032258064516
2133.0549048881567,87.09677419354838
2134.054930628845,64.51612903225806
2135.054956369533,58.06451612903226
2136.0549821102213,61.29032258064516
2137.05500785091,58.06451612903226
2138.055033591598,61.29032258064516
2139.0550593322864,64.51612903225806
2140.0550850729746,61.29032258064516
2141.055110813663,38.70967741935483
2142.0551365543515,25.806451612903224
2143.0551622950397,32.25806451612903
2144.055188035728,48.387096774193544
2145.055213776416,41.935483870967744
2146.0552395171044,38.70967741935483
2147.055265257793,48.387096774193544
2148.0552909984813,41.935483870967744
2149.0553167391695,32.25806451612903
2150.0553424798577,22.58064516129032
2151.055368220546,19.354838709677416
2152.0553939612346,19.354838709677416
2153.055419701923,29.03225806451613
2154.055445442611,29.03225806451613
2155.0554711832992,19.354838709677416
2156.0554969239874,16.129032258064516
2157.055522664676,3.225806451612903
2158.0555484053643,-6.451612903225806
2159.0555741460525,-3.225806451612903
2160.0555998867408,-6.451612903225806
2161.055625627429,-22.58064516129032
2162.0556513681177,-19.354838709677416
2163.055677108806,0.0
2164.055702849494,22.58064516129032
2165.0557285901823,19.354838709677416
2166.0557543308705,0.0
2167.055780071559,-38.70967741935483
2168.0558058122474,-67.74193548387096
2169.0558315529356,-54.83870967741935
2170.055857293624,-22.58064516129032
2171.055883034312,-9.677419354838708
2172.0559087750007,-12.903225806451612
2173.055934515689,-35.483870967741936
2174.055960256377,-58.06451612903226
2175.0559859970654,-67.74193548387096
2176.0560117377536,-64.51612903225806
2177.0560374784422,-51.61290322580645
2178.0560632191305,-35.483870967741936
2179.0560889598187,-38.70967741935483
2180.056114700507,-41.935483870967744
2181.056140441195,-25.806451612903224
2182.056166181884,0.0
2183.056191922572,12.903225806451612
2184.05621766326,6.451612903225806
2185.0562434039484,-19.354838709677416
2186.0562691446366,-51.61290322580645
2187.0562948853253,-67.74193548387096
2188.0563206260135,-99.99999999999999
2189.0563463667017,-132.258064516129
2190.05637210739,-122.58064516129032
2191.056397848078,-93.54838709677418
2192.056423588767,-77.41935483870967
2193.056449329455,-61.29032258064516
2194.0564750701433,-58.06451612903226
2195.0565008108315,-54.83870967741935
2196.0565265515197,-51.61290322580645
2197.0565522922084,-67.74193548387096
2198.0565780328966,-87.09677419354838
2199.056603773585,-106.4516129032258
2200.056629514273,-116.12903225806453
2201.0566552549612,-129.03225806451613
2202.05668099565,-135.48387096774192
2203.056706736338,-138.70967741935482
2204.0567324770263,-151.61290322580646
2205.0567582177146,-154.83870967741933
2206.056783958403,-148.38709677419354
2207.0568096990914,-129.03225806451613
2208.0568354397797,-112.9032258064516
2209.056861180468,-106.4516129032258
2210.056886921156,-96.77419354838709
2211.0569126618443,-77.41935483870967
2212.056938402533,-61.29032258064516
2213.056964143221,-64.51612903225806
2214.0569898839094,-80.64516129032258
2215.0570156245976,-87.09677419354838
2216.057041365286,-90.32258064516128
2217.0570671059745,-112.9032258064516
2218.0570928466627,-129.03225806451613
2219.057118587351,-132.258064516129
2220.057144328039,-125.80645161290322
2221.0571700687274,-112.9032258064516
2222.057195809416,-99.99999999999999
2223.0572215501043,-87.09677419354838
2224.0572472907925,-83.87096774193549
2225.0572730314807,-99.99999999999999
2226.057298772169,-103.2258064516129
2227.0573245128576,-99.99999999999999
2228.057350253546,-93.54838709677418
2229.057375994234,-90.32258064516128
2230.057401734922,-80.64516129032258
2231.0574274756104,-58.06451612903226
2232.057453216299,-54.83870967741935
2233.0574789569873,-58.06451612903226
2234.0575046976755,-51.61290322580645
2235.0575304383638,-74.19354838709677
2236.057556179052,-93.54838709677418
2237.0575819197406,-106.4516129032258
2238.057607660429,-103.2258064516129
2239.057633401117,-90.32258064516128
2240.0576591418053,-83.87096774193549
2241.0576848824935,-80.64516129032258
2242.057710623182,-90.32258064516128
2243.0577363638704,-112.9032258064516
2244.0577621045586,-125.80645161290322
2245.057787845247,-112.9032258064516
2246.057813585935,-109.6774193548387
2247.0578393266237,-116.12903225806453
2248.057865067312,-112.9032258064516
2249.057890808,-109.6774193548387
2250.0579165486884,-112.9032258064516
2251.0579422893766,-122.58064516129032
2252.0579680300652,-141.93548387096774
2253.0579937707535,-148.38709677419354
2254.0580195114417,-151.61290322580646
2255.05804525213,-141.93548387096774
2256.058070992818,-138.70967741935482
2257.0580967335068,-129.03225806451613
2258.058122474195,-119.35483870967742
2259.058148214883,-112.9032258064516
2260.0581739555714,-112.9032258064516
2261.0581996962596,-125.80645161290322
2262.0582254369483,-122.58064516129032
2263.0582511776365,-103.2258064516129
2264.0582769183247,-93.54838709677418
2265.058302659013,-90.32258064516128
2266.058328399701,-74.19354838709677
2267.05835414039,-77.41935483870967
2268.058379881078,-93.54838709677418
2269.0584056217663,-112.9032258064516
2270.0584313624545,-119.35483870967742
2271.0584571031427,-116.12903225806453
2272.0584828438314,-112.9032258064516
2273.0585085845196,-109.6774193548387
2274.058534325208,-109.6774193548387
2275.058560065896,-99.99999999999999
2276.0585858065842,-96.77419354838709
2277.058611547273,-80.64516129032258
2278.058637287961,-83.87096774193549
2279.0586630286493,-93.54838709677418
2280.0586887693376,-109.6774193548387
2281.0587145100258,-119.35483870967742
2282.0587402507144,-138.70967741935482
2283.0587659914027,-158.06451612903226
2284.058791732091,-154.83870967741933
2285.058817472779,-141.93548387096774
2286.0588432134673,-145.16129032258067
2287.0588689541555,-170.96774193548387
2288.058894694844,-180.64516129032256
2289.0589204355324,-177.41935483870967
2290.0589461762206,-141.93548387096774
2291.058971916909,-93.54838709677418
2292.058997657597,-67.74193548387096
2293.0590233982857,-74.19354838709677
2294.059049138974,-58.06451612903226
2295.059074879662,-35.483870967741936
2296.0591006203504,-29.03225806451613
2297.0591263610386,-38.70967741935483
2298.0591521017272,-45.16129032258064
2299.0591778424155,-35.483870967741936
2300.0592035831037,-25.806451612903224
2301.059229323792,-32.25806451612903
2302.05925506448,-48.387096774193544
2303.059280805169,-58.06451612903226
2304.059306545857,-74.19354838709677
2305.059332286545,-64.51612903225806
2306.0593580272334,-54.83870967741935
2307.0593837679216,-48.387096774193544
2308.0594095086103,-29.03225806451613
2309.0594352492985,-12.903225806451612
2310.0594609899867,3.225806451612903
2311.059486730675,-9.677419354838708
2312.059512471363,-35.483870967741936
2313.059538212052,-41.935483870967744
2314.05956395274,-41.935483870967744
2315.0595896934283,-38.70967741935483
2316.0596154341165,-41.935483870967744
2317.0596411748047,-35.483870967741936
2318.0596669154934,-19.354838709677416
2319.0596926561816,-25.806451612903224
2320.05971839687,-41.935483870967744
2321.059744137558,-64.51612903225806
2322.0597698782462,-90.32258064516128
2323.059795618935,-93.54838709677418
2324.059821359623,-87.09677419354838
2325.0598471003113,-87.09677419354838
2326.0598728409996,-67.74193548387096
2327.059898581688,-41.935483870967744
2328.0599243223764,-3.225806451612903
2329.0599500630647,9.677419354838708
2330.059975803753,9.677419354838708
2331.060001544441,-9.677419354838708
2332.0600272851293,-32.25806451612903
2333.060053025818,-58.06451612903226
2334.060078766506,-77.41935483870967
2335.0601045071944,-83.87096774193549
2336.0601302478826,-83.87096774193549
2337.060155988571,-74.19354838709677
2338.0601817292595,-54.83870967741935
2339.0602074699477,-58.06451612903226
2340.060233210636,-61.29032258064516
2341.060258951324,-67.74193548387096
2342.0602846920124,-74.19354838709677
2343.060310432701,-64.51612903225806
2344.0603361733893,-45.16129032258064
2345.0603619140775,-9.677419354838708
2346.0603876547657,-3.225806451612903
2347.060413395454,-19.354838709677416
2348.0604391361426,-12.903225806451612
2349.060464876831,-9.677419354838708
2350.060490617519,3.225806451612903
2351.060516358207,3.225806451612903
2352.0605420988954,-35.483870967741936
2353.060567839584,-61.29032258064516
2354.0605935802723,-67.74193548387096
2355.0606193209605,-58.06451612903226
2356.0606450616488,-45.16129032258064
2357.060670802337,-29.03225806451613
2358.0606965430256,-25.806451612903224
2359.060722283714,-25.806451612903224
2360.060748024402,-25.806451612903224
2361.0607737650903,-19.354838709677416
2362.0607995057785,-12.903225806451612
2363.060825246467,-3.225806451612903
2364.0608509871554,12.903225806451612
2365.0608767278436,16.129032258064516
2366.060902468532,12.903225806451612
2367.06092820922,0.0
2368.0609539499087,-22.58064516129032
2369.060979690597,-41.935483870967744
2370.061005431285,-51.61290322580645
2371.0610311719734,-51.61290322580645
2372.0610569126616,-48.387096774193544
2373.0610826533502,-35.483870967741936
2374.0611083940385,0.0
2375.0611341347267,41.935483870967744
2376.061159875415,58.06451612903226
2377.061185616103,32.25806451612903
2378.061211356792,3.225806451612903
2379.06123709748,3.225806451612903
2380.061262838168,16.129032258064516
2381.0612885788564,12.903225806451612
2382.0613143195446,12.903225806451612
2383.0613400602333,12.903225806451612
2384.0613658009215,9.677419354838708
2385.0613915416097,3.225806451612903
2386.061417282298,-9.677419354838708
2387.061443022986,-22.58064516129032
2388.061468763675,-35.483870967741936
2389.061494504363,-51.61290322580645
2390.0615202450513,-70.96774193548387
2391.0615459857395,-83.87096774193549
2392.0615717264277,-64.51612903225806
2393.0615974671164,-35.483870967741936
2394.0616232078046,-25.806451612903224
2395.061648948493,-22.58064516129032
2396.061674689181,-3.225806451612903
2397.0617004298692,12.903225806451612
2398.061726170558,22.58064516129032
2399.061751911246,25.806451612903224
2400.0617776519343,29.03225806451613
2401.0618033926226,29.03225806451613
2402.0618291333108,6.451612903225806
2403.0618548739994,6.451612903225806
2404.0618806146877,35.483870967741936
2405.061906355376,54.83870967741935
2406.061932096064,54.83870967741935
2407.0619578367523,25.806451612903224
2408.061983577441,3.225806451612903
2409.062009318129,0.0
2410.0620350588174,3.225806451612903
2411.0620607995056,6.451612903225806
2412.062086540194,3.225806451612903
2413.0621122808825,6.451612903225806
2414.0621380215707,12.903225806451612
2415.062163762259,3.225806451612903
2416.062189502947,9.677419354838708
2417.0622152436354,12.903225806451612
2418.062240984324,3.225806451612903
2419.0622667250123,-3.225806451612903
2420.0622924657005,0.0
2421.0623182063887,0.0
2422.062343947077,16.129032258064516
2423.0623696877656,35.483870967741936
2424.062395428454,35.483870967741936
2425.062421169142,25.806451612903224
2426.06244690983,25.806451612903224
2427.0624726505184,12.903225806451612
2428.062498391207,12.903225806451612
2429.0625241318953,16.129032258064516
2430.0625498725835,29.03225806451613
2431.0625756132717,25.806451612903224
2432.06260135396,6.451612903225806
2433.0626270946486,-9.677419354838708
2434.062652835337,-16.129032258064516
2435.062678576025,-22.58064516129032
2436.0627043167133,-35.483870967741936
2437.0627300574015,-41.935483870967744
2438.06275579809,-9.677419354838708
2439.0627815387784,19.354838709677416
2440.0628072794666,25.806451612903224
2441.062833020155,25.806451612903224
2442.062858760843,25.806451612903224
2443.0628845015312,29.03225806451613
2444.06291024222,25.806451612903224
2445.062935982908,29.03225806451613
2446.0629617235963,22.58064516129032
2447.0629874642846,16.129032258064516
2448.063013204973,16.129032258064516
2449.0630389456614,12.903225806451612
2450.0630646863497,9.677419354838708
2451.063090427038,12.903225806451612
2452.063116167726,35.483870967741936
2453.0631419084143,51.61290322580645
2454.063167649103,48.387096774193544
2455.063193389791,45.16129032258064
2456.0632191304794,45.16129032258064
2457.0632448711676,38.70967741935483
2458.063270611856,32.25806451612903
2459.0632963525445,19.354838709677416
2460.0633220932327,19.354838709677416
2461.063347833921,32.25806451612903
2462.063373574609,41.935483870967744
2463.0633993152974,35.483870967741936
2464.063425055986,38.70967741935483
2465.0634507966743,51.61290322580645
2466.0634765373625,51.61290322580645
2467.0635022780507,35.483870967741936
2468.063528018739,35.483870967741936
2469.0635537594276,54.83870967741935
2470.063579500116,77.41935483870967
2471.063605240804,70.96774193548387
2472.063630981492,22.58064516129032
2473.0636567221804,-12.903225806451612
2474.063682462869,-19.354838709677416
2475.0637082035573,-9.677419354838708
2476.0637339442455,9.677419354838708
2477.0637596849338,19.354838709677416
2478.063785425622,9.677419354838708
2479.0638111663106,6.451612903225806
2480.063836906999,16.129032258064516
2481.063862647687,35.483870967741936
2482.0638883883753,29.03225806451613
2483.0639141290635,9.677419354838708
2484.063939869752,0.0
2485.0639656104404,6.451612903225806
2486.0639913511286,12.903225806451612
2487.064017091817,12.903225806451612
2488.064042832505,32.25806451612903
2489.0640685731937,58.06451612903226
2490.064094313882,58.06451612903226
2491.06412005457,54.83870967741935
2492.0641457952584,45.16129032258064
2493.0641715359466,29.03225806451613
2494.0641972766352,25.806451612903224
2495.0642230173235,35.483870967741936
2496.0642487580117,41.935483870967744
2497.0642744987,38.70967741935483
2498.064300239388,35.483870967741936
2499.064325980077,12.903225806451612
2500.064351720765,3.225806451612903
2501.064377461453,-3.225806451612903
2502.0644032021414,-9.677419354838708
2503.0644289428296,-3.225806451612903
2504.0644546835183,6.451612903225806
2505.0644804242065,0.0
2506.0645061648947,-22.58064516129032
2507.064531905583,-29.03225806451613
2508.064557646271,-22.58064516129032
2509.06458338696,-3.225806451612903
2510.064609127648,16.129032258064516
2511.0646348683363,19.354838709677416
2512.0646606090245,19.354838709677416
2513.0646863497127,29.03225806451613
2514.0647120904014,29.03225806451613
2515.0647378310896,35.483870967741936
2516.064763571778,51.61290322580645
2517.064789312466,54.83870967741935
2518.0648150531542,45.16129032258064
2519.064840793843,22.58064516129032
2520.064866534531,25.806451612903224
2521.0648922752193,41.935483870967744
2522.0649180159076,54.83870967741935
2523.0649437565958,67.74193548387096
2524.0649694972844,61.29032258064516
2525.0649952379727,54.83870967741935
2526.065020978661,58.06451612903226
2527.065046719349,58.06451612903226
2528.0650724600373,54.83870967741935
2529.065098200726,51.61290322580645
2530.065123941414,45.16129032258064
2531.0651496821024,9.677419354838708
2532.0651754227906,-35.483870967741936
2533.065201163479,-51.61290322580645
2534.0652269041675,-54.83870967741935
2535.0652526448557,-19.354838709677416
2536.065278385544,3.225806451612903
2537.065304126232,3.225806451612903
2538.0653298669204,3.225806451612903
2539.065355607609,0.0
2540.0653813482973,19.354838709677416
2541.0654070889855,45.16129032258064
2542.0654328296737,58.06451612903226
2543.065458570362,54.83870967741935
2544.0654843110506,35.483870967741936
2545.065510051739,25.806451612903224
2546.065535792427,38.70967741935483
2547.065561533115,41.935483870967744
2548.0655872738034,38.70967741935483
2549.065613014492,51.61290322580645
2550.0656387551803,54.83870967741935
2551.0656644958685,45.16129032258064
2552.0656902365567,29.03225806451613
2553.065715977245,9.677419354838708
2554.0657417179336,-3.225806451612903
2555.065767458622,9.677419354838708
2556.06579319931,9.677419354838708
2557.0658189399983,6.451612903225806
2558.0658446806865,6.451612903225806
2559.065870421375,6.451612903225806
2560.0658961620634,12.903225806451612
2561.0659219027516,29.03225806451613
2562.06594764344,45.16129032258064
2563.065973384128,51.61290322580645
2564.0659991248167,29.03225806451613
2565.066024865505,-3.225806451612903
2566.066050606193,-29.03225806451613
2567.0660763468813,-35.483870967741936
2568.0661020875696,-16.129032258064516
2569.0661278282582,3.225806451612903
2570.0661535689464,3.225806451612903
2571.0661793096347,3.225806451612903
2572.066205050323,6.451612903225806
2573.066230791011,45.16129032258064
2574.0662565316998,93.54838709677418
2575.066282272388,122.58064516129032
2576.066308013076,135.48387096774192
2577.0663337537644,116.12903225806453
2578.0663594944526,103.2258064516129
2579.0663852351413,77.41935483870967
2580.0664109758295,48.387096774193544
2581.0664367165177,41.935483870967744
2582.066462457206,35.483870967741936
2583.066488197894,22.58064516129032
2584.066513938583,12.903225806451612
2585.066539679271,3.225806451612903
2586.0665654199593,-12.903225806451612
2587.0665911606475,-22.58064516129032
2588.0666169013357,-12.903225806451612
2589.0666426420244,3.225806451612903
2590.0666683827126,9.677419354838708
2591.066694123401,0.0
2592.066719864089,-3.225806451612903
2593.066745604777,-6.451612903225806
2594.066771345466,-6.451612903225806
2595.066797086154,0.0
2596.0668228268423,3.225806451612903
2597.0668485675305,0.0
2598.0668743082188,6.451612903225806
2599.0669000489074,0.0
2600.0669257895956,-9.677419354838708
2601.066951530284,-16.129032258064516
2602.066977270972,-12.903225806451612
2603.0670030116603,-9.677419354838708
2604.0670287523485,-6.451612903225806
2605.067054493037,-6.451612903225806
2606.0670802337254,-3.225806451612903
2607.0671059744136,3.225806451612903
2608.067131715102,22.58064516129032
2609.06715745579,22.58064516129032
2610.0671831964787,6.451612903225806
2611.067208937167,3.225806451612903
2612.067234677855,6.451612903225806
2613.0672604185434,3.225806451612903
2614.0672861592316,19.354838709677416
2615.0673118999202,38.70967741935483
2616.0673376406085,45.16129032258064
2617.0673633812967,51.61290322580645
2618.067389121985,51.61290322580645
2619.067414862673,35.483870967741936
2620.067440603362,22.58064516129032
2621.06746634405,0.0
2622.067492084738,-35.483870967741936
2623.0675178254264,-41.935483870967744
2624.0675435661146,-19.354838709677416
2625.0675693068033,3.225806451612903
2626.0675950474915,9.677419354838708
2627.0676207881797,3.225806451612903
2628.067646528868,-3.225806451612903
2629.067672269556,-19.354838709677416
2630.067698010245,-25.806451612903224
2631.067723750933,-25.806451612903224
2632.0677494916213,-9.677419354838708
2633.0677752323095,9.677419354838708
2634.0678009729977,3.225806451612903
2635.0678267136864,-9.677419354838708
2636.0678524543746,-12.903225806451612
2637.067878195063,6.451612903225806
2638.067903935751,29.03225806451613
2639.0679296764392,32.25806451612903
2640.067955417128,29.03225806451613
2641.067981157816,25.806451612903224
2642.0680068985043,16.129032258064516
2643.0680326391926,16.129032258064516
2644.0680583798808,35.483870967741936
2645.0680841205694,45.16129032258064
2646.0681098612577,48.387096774193544
2647.068135601946,51.61290322580645
2648.068161342634,67.74193548387096
2649.0681870833223,70.96774193548387
2650.068212824011,58.06451612903226
2651.068238564699,45.16129032258064
2652.0682643053874,61.29032258064516
2653.0682900460756,70.96774193548387
2654.068315786764,77.41935483870967
2655.0683415274525,67.74193548387096
2656.0683672681407,54.83870967741935
2657.068393008829,38.70967741935483
2658.068418749517,29.03225806451613
2659.0684444902054,19.354838709677416
2660.068470230894,3.225806451612903
2661.0684959715823,3.225806451612903
2662.0685217122705,32.25806451612903
2663.0685474529587,48.387096774193544
2664.068573193647,45.16129032258064
2665.0685989343356,45.16129032258064
2666.068624675024,61.29032258064516
2667.068650415712,77.41935483870967
2668.0686761564,80.64516129032258
2669.0687018970884,74.19354838709677
2670.068727637777,45.16129032258064
2671.0687533784653,6.451612903225806
2672.0687791191535,-12.903225806451612
2673.0688048598417,-19.354838709677416
2674.06883060053,-12.903225806451612
2675.0688563412186,-9.677419354838708
2676.068882081907,-6.451612903225806
2677.068907822595,-6.451612903225806
2678.0689335632833,6.451612903225806
2679.0689593039715,16.129032258064516
2680.06898504466,32.25806451612903
2681.0690107853484,48.387096774193544
2682.0690365260366,58.06451612903226
2683.069062266725,64.51612903225806
2684.069088007413,64.51612903225806
2685.0691137481017,51.61290322580645
2686.06913948879,32.25806451612903
2687.069165229478,12.903225806451612
2688.0691909701663,-9.677419354838708
2689.0692167108546,-35.483870967741936
2690.0692424515432,-51.61290322580645
2691.0692681922314,-64.51612903225806
2692.0692939329197,-83.87096774193549
2693.069319673608,-83.87096774193549
2694.069345414296,-103.2258064516129
2695.0693711549848,-112.9032258064516
2696.069396895673,-99.99999999999999
2697.069422636361,-96.77419354838709
2698.0694483770494,-80.64516129032258
2699.0694741177376,-61.29032258064516
2700.0694998584263,-19.354838709677416
2701.0695255991145,16.129032258064516
2702.0695513398027,19.354838709677416
2703.069577080491,0.0
2704.069602821179,-6.451612903225806
2705.069628561868,6.451612903225806
2706.069654302556,19.354838709677416
2707.0696800432443,25.806451612903224
2708.0697057839325,12.903225806451612
2709.0697315246207,-9.677419354838708
2710.0697572653094,-25.806451612903224
2711.0697830059976,-32.25806451612903
2712.069808746686,-29.03225806451613
2713.069834487374,-41.935483870967744
2714.069860228062,-61.29032258064516
2715.069885968751,-83.87096774193549
2716.069911709439,-103.2258064516129
2717.0699374501273,-83.87096774193549
2718.0699631908155,-25.806451612903224
2719.0699889315038,38.70967741935483
2720.0700146721924,61.29032258064516
2721.0700404128806,61.29032258064516
2722.070066153569,48.387096774193544
2723.070091894257,22.58064516129032
2724.0701176349453,6.451612903225806
2725.070143375634,9.677419354838708
2726.070169116322,29.03225806451613
2727.0701948570104,25.806451612903224
2728.0702205976986,12.903225806451612
2729.070246338387,9.677419354838708
2730.0702720790755,12.903225806451612
2731.0702978197637,0.0
2732.070323560452,-16.129032258064516
2733.07034930114,-35.483870967741936
2734.0703750418284,-58.06451612903226
2735.070400782517,-77.41935483870967
2736.0704265232052,-70.96774193548387
2737.0704522638935,-64.51612903225806
2738.0704780045817,-38.70967741935483
2739.07050374527,-25.806451612903224
2740.0705294859586,-19.354838709677416
2741.070555226647,-12.903225806451612
2742.070580967335,0.0
2743.070606708023,22.58064516129032
2744.0706324487114,35.483870967741936
2745.0706581894,54.83870967741935
2746.0706839300883,61.29032258064516
2747.0707096707765,61.29032258064516
2748.0707354114647,67.74193548387096
2749.070761152153,77.41935483870967
2750.0707868928416,99.99999999999999
2751.07081263353,141.93548387096774
2752.070838374218,170.96774193548387
2753.0708641149063,206.4516129032258
2754.0708898555945,232.25806451612905
2755.070915596283,270.96774193548384
2756.0709413369714,316.1290322580645
2757.0709670776596,367.741935483871
2758.070992818348,419.3548387096774
2759.071018559036,448.3870967741935
2760.0710442997242,448.3870967741935
2761.071070040413,464.5161290322581
2762.071095781101,496.7741935483871
2763.0711215217893,535.4838709677418
2764.0711472624776,561.290322580645
2765.0711730031658,596.7741935483871
2766.0711987438544,619.3548387096773
2767.0712244845427,606.4516129032259
2768.071250225231,593.5483870967741
2769.071275965919,593.5483870967741
2770.0713017066073,593.5483870967741
2771.071327447296,577.4193548387096
2772.071353187984,551.6129032258063
2773.0713789286724,522.5806451612904
2774.0714046693606,477.4193548387097
2775.071430410049,425.8064516129032
2776.0714561507375,361.2903225806451
2777.0714818914257,287.0967741935484
2778.071507632114,229.0322580645161
2779.071533372802,183.8709677419355
2780.0715591134904,145.16129032258067
2781.071584854179,93.54838709677418
2782.0716105948673,16.129032258064516
2783.0716363355555,-64.51612903225806
2784.0716620762437,-129.03225806451613
2785.071687816932,-177.41935483870967
2786.0717135576206,-235.48387096774195
2787.071739298309,-300.0
2788.071765038997,-358.06451612903226
2789.071790779685,-393.5483870967742
2790.0718165203734,-390.3225806451613
2791.071842261062,-380.64516129032256
2792.0718680017503,-358.06451612903226
2793.0718937424385,-329.0322580645161
2794.0719194831267,-303.2258064516129
2795.071945223815,-270.96774193548384
2796.0719709645036,-235.48387096774195
2797.071996705192,-219.3548387096774
2798.07202244588,-206.4516129032258
2799.0720481865683,-190.32258064516128
2800.0720739272565,-177.41935483870967
2801.072099667945,-167.74193548387098
2802.0721254086334,-174.19354838709677
2803.0721511493216,-180.64516129032256
2804.07217689001,-193.54838709677418
2805.072202630698,-203.2258064516129
2806.0722283713867,-190.32258064516128
2807.072254112075,-183.8709677419355
2808.072279852763,-164.51612903225805
2809.0723055934513,-145.16129032258067
2810.0723313341396,-138.70967741935482
2811.0723570748282,-132.258064516129
2812.0723828155164,-132.258064516129
2813.0724085562047,-125.80645161290322
2814.072434296893,-109.6774193548387
2815.072460037581,-96.77419354838709
2816.0724857782698,-87.09677419354838
2817.072511518958,-87.09677419354838
2818.072537259646,-103.2258064516129
2819.0725630003344,-119.35483870967742
2820.0725887410226,-119.35483870967742
2821.0726144817113,-112.9032258064516
2822.0726402223995,-116.12903225806453
2823.0726659630877,-112.9032258064516
2824.072691703776,-119.35483870967742
2825.072717444464,-93.54838709677418
2826.072743185153,-58.06451612903226
2827.072768925841,-45.16129032258064
2828.0727946665293,-35.483870967741936
2829.0728204072175,-45.16129032258064
2830.0728461479057,-61.29032258064516
2831.0728718885944,-80.64516129032258
2832.0728976292826,-90.32258064516128
2833.072923369971,-90.32258064516128
2834.072949110659,-93.54838709677418
2835.072974851347,-64.51612903225806
2836.073000592036,-61.29032258064516
2837.073026332724,-58.06451612903226
2838.0730520734123,-48.387096774193544
2839.0730778141005,-48.387096774193544
2840.0731035547888,-64.51612903225806
2841.0731292954774,-77.41935483870967
2842.0731550361656,-74.19354838709677
2843.073180776854,-51.61290322580645
2844.073206517542,-29.03225806451613
2845.0732322582303,-9.677419354838708
2846.073257998919,-12.903225806451612
2847.073283739607,-19.354838709677416
2848.0733094802954,-12.903225806451612
2849.0733352209836,-22.58064516129032
2850.073360961672,-25.806451612903224
2851.0733867023605,-19.354838709677416
2852.0734124430487,-22.58064516129032
2853.073438183737,-38.70967741935483
2854.073463924425,-64.51612903225806
2855.0734896651134,-74.19354838709677
2856.073515405802,-74.19354838709677
2857.0735411464902,-74.19354838709677
2858.0735668871785,-80.64516129032258
2859.0735926278667,-61.29032258064516
2860.073618368555,-58.06451612903226
2861.0736441092436,-61.29032258064516
2862.073669849932,-32.25806451612903
2863.07369559062,-19.354838709677416
2864.073721331308,-19.354838709677416
2865.0737470719964,-9.677419354838708
2866.073772812685,12.903225806451612
2867.0737985533733,12.903225806451612
2868.0738242940615,3.225806451612903
2869.0738500347497,-12.903225806451612
2870.073875775438,-32.25806451612903
2871.0739015161266,-41.935483870967744
2872.073927256815,-54.83870967741935
2873.073952997503,-54.83870967741935
2874.0739787381913,-45.16129032258064
2875.0740044788795,-38.70967741935483
2876.074030219568,-35.483870967741936
2877.0740559602564,-29.03225806451613
2878.0740817009446,-12.903225806451612
2879.074107441633,-9.677419354838708
2880.074133182321,0.0
2881.0741589230097,16.129032258064516
2882.074184663698,25.806451612903224
2883.074210404386,16.129032258064516
2884.0742361450743,-9.677419354838708
2885.0742618857626,-51.61290322580645
2886.074287626451,-67.74193548387096
2887.0743133671394,-51.61290322580645
2888.0743391078277,-41.935483870967744
2889.074364848516,-32.25806451612903
2890.074390589204,-22.58064516129032
2891.0744163298928,-25.806451612903224
2892.074442070581,-35.483870967741936
2893.074467811269,-41.935483870967744
2894.0744935519574,-38.70967741935483
2895.0745192926456,-29.03225806451613
2896.0745450333343,-22.58064516129032
2897.0745707740225,-22.58064516129032
2898.0745965147107,-25.806451612903224
2899.074622255399,-51.61290322580645
2900.074647996087,-74.19354838709677
2901.074673736776,-58.06451612903226
2902.074699477464,-22.58064516129032
2903.0747252181523,9.677419354838708
2904.0747509588405,9.677419354838708
2905.0747766995287,3.225806451612903
2906.0748024402174,9.677419354838708
2907.0748281809056,3.225806451612903
2908.074853921594,-6.451612903225806
2909.074879662282,-9.677419354838708
2910.07490540297,-3.225806451612903
2911.074931143659,3.225806451612903
2912.074956884347,0.0
2913.0749826250353,3.225806451612903
2914.0750083657235,-6.451612903225806
2915.0750341064117,-12.903225806451612
2916.0750598471,-9.677419354838708
2917.0750855877886,-12.903225806451612
2918.075111328477,-6.451612903225806
2919.075137069165,3.225806451612903
2920.0751628098533,6.451612903225806
2921.0751885505415,9.677419354838708
2922.07521429123,12.903225806451612
2923.0752400319184,9.677419354838708
2924.0752657726066,12.903225806451612
2925.075291513295,12.903225806451612
2926.075317253983,3.225806451612903
2927.0753429946717,9.677419354838708
2928.07536873536,16.129032258064516
2929.075394476048,25.806451612903224
2930.0754202167363,38.70967741935483
2931.0754459574246,38.70967741935483
2932.0754716981132,38.70967741935483
2933.0754974388014,29.03225806451613
2934.0755231794897,25.806451612903224
2935.075548920178,9.677419354838708
2936.075574660866,3.225806451612903
2937.0756004015548,0.0
2938.075626142243,3.225806451612903
2939.075651882931,25.806451612903224
2940.0756776236194,45.16129032258064
2941.0757033643076,51.61290322580645
2942.0757291049963,41.935483870967744
2943.0757548456845,35.483870967741936
2944.0757805863727,22.58064516129032
2945.075806327061,0.0
2946.075832067749,-22.58064516129032
2947.075857808438,-38.70967741935483
2948.075883549126,-35.483870967741936
2949.0759092898143,-45.16129032258064
2950.0759350305025,-35.483870967741936
2951.0759607711907,-16.129032258064516
2952.0759865118794,-16.129032258064516
2953.0760122525676,-22.58064516129032
2954.076037993256,-19.354838709677416
2955.076063733944,-3.225806451612903
2956.076089474632,6.451612903225806
2957.076115215321,6.451612903225806
2958.076140956009,9.677419354838708
2959.0761666966973,3.225806451612903
2960.0761924373855,6.451612903225806
2961.0762181780738,25.806451612903224
2962.0762439187624,45.16129032258064
2963.0762696594506,67.74193548387096
2964.076295400139,70.96774193548387
2965.076321140827,70.96774193548387
2966.0763468815153,87.09677419354838
2967.076372622204,93.54838709677418
2968.076398362892,103.2258064516129
2969.0764241035804,103.2258064516129
2970.0764498442686,90.32258064516128
2971.076475584957,61.29032258064516
2972.0765013256455,41.935483870967744
2973.0765270663337,35.483870967741936
2974.076552807022,29.03225806451613
2975.07657854771,29.03225806451613
2976.0766042883984,29.03225806451613
2977.076630029087,41.935483870967744
2978.0766557697752,74.19354838709677
2979.0766815104635,87.09677419354838
2980.0767072511517,96.77419354838709
2981.07673299184,109.6774193548387
2982.0767587325286,129.03225806451613
2983.076784473217,135.48387096774192
2984.076810213905,116.12903225806453
2985.076835954593,90.32258064516128
2986.0768616952814,74.19354838709677
2987.07688743597,51.61290322580645
2988.0769131766583,67.74193548387096
2989.0769389173465,103.2258064516129
2990.0769646580347,103.2258064516129
2991.076990398723,96.77419354838709
2992.0770161394116,83.87096774193549
2993.0770418801,41.935483870967744
2994.077067620788,3.225806451612903
2995.0770933614763,-19.354838709677416
2996.0771191021645,-9.677419354838708
2997.077144842853,3.225806451612903
2998.0771705835414,22.58064516129032
2999.0771963242296,32.25806451612903
3000.077222064918,38.70967741935483
3001.077247805606,35.483870967741936
3002.0772735462947,35.483870967741936
3003.077299286983,70.96774193548387
3004.077325027671,99.99999999999999
3005.0773507683593,99.99999999999999
3006.0773765090476,96.77419354838709
3007.077402249736,93.54838709677418
3008.0774279904244,83.87096774193549
3009.0774537311127,64.51612903225806
3010.077479471801,54.83870967741935
3011.077505212489,45.16129032258064
3012.0775309531778,61.29032258064516
3013.077556693866,96.77419354838709
3014.077582434554,116.12903225806453
3015.0776081752424,125.80645161290322
3016.0776339159306,138.70967741935482
3017.0776596566193,116.12903225806453
3018.0776853973075,77.41935483870967
3019.0777111379957,45.16129032258064
3020.077736878684,25.806451612903224
3021.077762619372,29.03225806451613
3022.077788360061,38.70967741935483
3023.077814100749,29.03225806451613
3024.0778398414373,19.354838709677416
3025.0778655821255,22.58064516129032
3026.0778913228137,25.806451612903224
3027.0779170635024,22.58064516129032
3028.0779428041906,16.129032258064516
3029.077968544879,9.677419354838708
3030.077994285567,3.225806451612903
3031.078020026255,-6.451612903225806
3032.078045766944,-22.58064516129032
3033.078071507632,-32.25806451612903
3034.0780972483203,-22.58064516129032
3035.0781229890085,-9.677419354838708
3036.0781487296967,-9.677419354838708
3037.0781744703854,-22.58064516129032
3038.0782002110736,-19.354838709677416
3039.078225951762,-6.451612903225806
3040.07825169245,-9.677419354838708
3041.0782774331383,-3.225806451612903
3042.078303173827,-9.677419354838708
3043.078328914515,-9.677419354838708
3044.0783546552034,-9.677419354838708
3045.0783803958916,-25.806451612903224
3046.07840613658,-38.70967741935483
3047.0784318772685,-38.70967741935483
3048.0784576179567,-35.483870967741936
3049.078483358645,-48.387096774193544
3050.078509099333,-77.41935483870967
3051.0785348400213,-87.09677419354838
3052.07856058071,-77.41935483870967
3053.0785863213982,-64.51612903225806
3054.0786120620864,-54.83870967741935
3055.0786378027747,-41.935483870967744
3056.078663543463,-32.25806451612903
3057.0786892841516,-58.06451612903226
3058.0787150248398,-87.09677419354838
3059.078740765528,-99.99999999999999
3060.078766506216,-90.32258064516128
3061.0787922469044,-70.96774193548387
3062.078817987593,-64.51612903225806
3063.0788437282813,-70.96774193548387
3064.0788694689695,-74.19354838709677
3065.0788952096577,-70.96774193548387
3066.078920950346,-67.74193548387096
3067.0789466910346,-67.74193548387096
3068.078972431723,-74.19354838709677
3069.078998172411,-90.32258064516128
3070.0790239130993,-96.77419354838709
3071.0790496537875,-99.99999999999999
3072.0790753944757,-103.2258064516129
3073.0791011351644,-96.77419354838709
3074.0791268758526,-103.2258064516129
3075.079152616541,-116.12903225806453
3076.079178357229,-129.03225806451613
3077.079204097917,-132.258064516129
3078.079229838606,-132.258064516129
3079.079255579294,-132.258064516129
3080.0792813199823,-135.48387096774192
3081.0793070606705,-129.03225806451613
3082.0793328013588,-125.80645161290322
3083.0793585420474,-129.03225806451613
3084.0793842827356,-138.70967741935482
3085.079410023424,-145.16129032258067
3086.079435764112,-154.83870967741933
3087.0794615048003,-151.61290322580646
3088.079487245489,-135.48387096774192
3089.079512986177,-106.4516129032258
3090.0795387268654,-87.09677419354838
3091.0795644675536,-67.74193548387096
3092.079590208242,-70.96774193548387
3093.0796159489305,-96.77419354838709
3094.0796416896187,-119.35483870967742
3095.079667430307,-167.74193548387098
3096.079693170995,-209.6774193548387
3097.0797189116834,-235.48387096774195
3098.079744652372,-245.16129032258064
3099.0797703930602,-245.16129032258064
3100.0797961337485,-229.0322580645161
3101.0798218744367,-180.64516129032256
3102.079847615125,-141.93548387096774
3103.0798733558136,-116.12903225806453
3104.079899096502,-90.32258064516128
3105.07992483719,-87.09677419354838
3106.079950577878,-112.9032258064516
3107.0799763185664,-132.258064516129
3108.080002059255,-116.12903225806453
3109.0800277999433,-112.9032258064516
3110.0800535406315,-129.03225806451613
3111.0800792813197,-141.93548387096774
3112.080105022008,-145.16129032258067
3113.0801307626966,-138.70967741935482
3114.080156503385,-125.80645161290322
3115.080182244073,-122.58064516129032
3116.0802079847613,-129.03225806451613
3117.0802337254495,-135.48387096774192
3118.080259466138,-148.38709677419354
3119.0802852068264,-151.61290322580646
3120.0803109475146,-141.93548387096774
3121.080336688203,-125.80645161290322
3122.080362428891,-109.6774193548387
3123.0803881695797,-106.4516129032258
3124.080413910268,-112.9032258064516
3125.080439650956,-122.58064516129032
3126.0804653916443,-125.80645161290322
3127.0804911323326,-125.80645161290322
3128.080516873021,-112.9032258064516
3129.0805426137094,-96.77419354838709
3130.0805683543977,-77.41935483870967
3131.080594095086,-64.51612903225806
3132.080619835774,-61.29032258064516
3133.0806455764628,-67.74193548387096
3134.080671317151,-70.96774193548387
3135.080697057839,-67.74193548387096
3136.0807227985274,-64.51612903225806
3137.0807485392156,-70.96774193548387
3138.0807742799043,-61.29032258064516
3139.0808000205925,-54.83870967741935
3140.0808257612807,-61.29032258064516
3141.080851501969,-77.41935483870967
3142.080877242657,-87.09677419354838
3143.080902983346,-80.64516129032258
3144.080928724034,-74.19354838709677
3145.0809544647223,-67.74193548387096
3146.0809802054105,-48.387096774193544
3147.0810059460987,-45.16129032258064
3148.0810316867874,-61.29032258064516
3149.0810574274756,-87.09677419354838
3150.081083168164,-80.64516129032258
3151.081108908852,-51.61290322580645
3152.08113464954,-48.387096774193544
3153.081160390229,-64.51612903225806
