timestamp,valores
0.0,-1587.0967741935485
1.000027778549404,-1587.0967741935485
2.000055557098808,-1574.1935483870968
3.0000833356482124,-1561.2903225806451
4.000111114197616,-1551.6129032258063
5.00013889274702,-1551.6129032258063
6.000166671296425,-1561.2903225806451
7.000194449845829,-1574.1935483870968
8.000222228395232,-1583.8709677419354
9.000250006944636,-1587.0967741935485
10.00027778549404,-1577.4193548387098
11.000305564043444,-1564.516129032258
12.00033334259285,-1554.8387096774195
13.000361121142253,-1551.6129032258063
14.000388899691657,-1554.8387096774195
15.000416678241061,-1567.741935483871
16.000444456790465,-1580.6451612903224
17.00047223533987,-1587.0967741935485
18.000500013889273,-1583.8709677419354
19.000527792438678,-1570.967741935484
20.00055557098808,-1558.0645161290322
21.000583349537486,-1551.6129032258063
22.000611128086888,-1551.6129032258063
23.000638906636294,-1564.516129032258
24.0006666851857,-1577.4193548387098
25.0006944637351,-1587.0967741935485
26.000722242284507,-1587.0967741935485
27.00075002083391,-1574.1935483870968
28.000777799383314,-1561.2903225806451
29.000805577932717,-1551.6129032258063
30.000833356482122,-1551.6129032258063
31.000861135031524,-1561.2903225806451
32.00088891358093,-1574.1935483870968
33.00091669213033,-1583.8709677419354
34.00094447067974,-1587.0967741935485
35.00097224922914,-1577.4193548387098
36.001000027778545,-1564.516129032258
37.00102780632795,-1554.8387096774195
38.001055584877356,-1551.6129032258063
39.00108336342676,-1554.8387096774195
40.00111114197616,-1567.741935483871
41.00113892052557,-1580.6451612903224
42.00116669907497,-1587.0967741935485
43.001194477624374,-1583.8709677419354
44.001222256173776,-1570.967741935484
45.001250034723185,-1558.0645161290322
46.00127781327259,-1551.6129032258063
47.00130559182199,-1551.6129032258063
48.0013333703714,-1564.516129032258
49.0013611489208,-1577.4193548387098
50.0013889274702,-1587.0967741935485
51.001416706019604,-1587.0967741935485
52.001444484569014,-1574.1935483870968
53.001472263118416,-1561.2903225806451
54.00150004166782,-1554.8387096774195
55.00152782021722,-1551.6129032258063
56.00155559876663,-1561.2903225806451
57.00158337731603,-1574.1935483870968
58.00161115586543,-1583.8709677419354
59.00163893441484,-1587.0967741935485
60.001666712964244,-1577.4193548387098
61.001694491513646,-1564.516129032258
62.00172227006305,-1554.8387096774195
63.00175004861246,-1551.6129032258063
64.00177782716186,-1554.8387096774195
65.00180560571127,-1567.741935483871
66.00183338426066,-1580.6451612903224
67.00186116281007,-1587.0967741935485
68.00188894135948,-1583.8709677419354
69.00191671990888,-1570.967741935484
70.00194449845829,-1558.0645161290322
71.00197227700768,-1551.6129032258063
72.00200005555709,-1551.6129032258063
73.0020278341065,-1564.516129032258
74.0020556126559,-1577.4193548387098
75.0020833912053,-1587.0967741935485
76.00211116975471,-1587.0967741935485
77.00213894830411,-1574.1935483870968
78.00216672685352,-1561.2903225806451
79.00219450540293,-1554.8387096774195
80.00222228395232,-1551.6129032258063
81.00225006250173,-1561.2903225806451
82.00227784105114,-1574.1935483870968
83.00230561960053,-1583.8709677419354
84.00233339814994,-1587.0967741935485
85.00236117669934,-1577.4193548387098
86.00238895524875,-1567.741935483871
87.00241673379816,-1554.8387096774195
88.00244451234755,-1551.6129032258063
89.00247229089696,-1554.8387096774195
90.00250006944637,-1567.741935483871
91.00252784799576,-1580.6451612903224
92.00255562654517,-1587.0967741935485
93.00258340509458,-1583.8709677419354
94.00261118364398,-1570.967741935484
95.00263896219339,-1558.0645161290322
96.0026667407428,-1551.6129032258063
97.00269451929219,-1551.6129032258063
98.0027222978416,-1564.516129032258
99.002750076391,-1577.4193548387098
100.0027778549404,-1587.0967741935485
101.00280563348981,-1587.0967741935485
102.00283341203921,-1574.1935483870968
103.00286119058862,-1561.2903225806451
104.00288896913803,-1554.8387096774195
105.00291674768742,-1551.6129032258063
106.00294452623683,-1561.2903225806451
107.00297230478624,-1574.1935483870968
108.00300008333564,-1583.8709677419354
109.00302786188504,-1587.0967741935485
110.00305564043444,-1577.4193548387098
111.00308341898385,-1567.741935483871
112.00311119753326,-1554.8387096774195
113.00313897608265,-1551.6129032258063
114.00316675463206,-1554.8387096774195
115.00319453318147,-1567.741935483871
116.00322231173087,-1580.6451612903224
117.00325009028028,-1587.0967741935485
118.00327786882968,-1583.8709677419354
119.00330564737908,-1570.967741935484
120.00333342592849,-1558.0645161290322
121.0033612044779,-1551.6129032258063
122.00338898302729,-1551.6129032258063
123.0034167615767,-1564.516129032258
124.0034445401261,-1577.4193548387098
125.0034723186755,-1587.0967741935485
126.00350009722492,-1587.0967741935485
127.00352787577431,-1574.1935483870968
128.00355565432372,-1564.516129032258
129.0035834328731,-1554.8387096774195
130.00361121142254,-1551.6129032258063
131.00363898997193,-1558.0645161290322
132.00366676852133,-1574.1935483870968
133.00369454707075,-1583.8709677419354
134.00372232562015,-1587.0967741935485
135.00375010416954,-1577.4193548387098
136.00377788271896,-1567.741935483871
137.00380566126836,-1558.0645161290322
138.00383343981775,-1551.6129032258063
139.00386121836718,-1554.8387096774195
140.00388899691657,-1567.741935483871
141.00391677546597,-1580.6451612903224
142.00394455401536,-1587.0967741935485
143.00397233256479,-1583.8709677419354
144.00400011111418,-1570.967741935484
145.00402788966358,-1561.2903225806451
146.004055668213,-1551.6129032258063
147.0040834467624,-1551.6129032258063
148.0041112253118,-1564.516129032258
149.0041390038612,-1577.4193548387098
150.0041667824106,-1587.0967741935485
151.00419456096,-1587.0967741935485
152.00422233950943,-1574.1935483870968
153.00425011805882,-1564.516129032258
154.00427789660822,-1554.8387096774195
155.00430567515764,-1551.6129032258063
156.00433345370703,-1558.0645161290322
157.00436123225643,-1574.1935483870968
158.00438901080585,-1583.8709677419354
159.00441678935525,-1587.0967741935485
160.00444456790464,-1580.6451612903224
161.00447234645407,-1567.741935483871
162.00450012500346,-1558.0645161290322
163.00452790355286,-1551.6129032258063
164.00455568210228,-1554.8387096774195
165.00458346065167,-1567.741935483871
166.00461123920107,-1580.6451612903224
167.00463901775046,-1587.0967741935485
168.0046667962999,-1583.8709677419354
169.00469457484928,-1570.967741935484
170.00472235339868,-1561.2903225806451
171.0047501319481,-1551.6129032258063
172.0047779104975,-1551.6129032258063
173.0048056890469,-1564.516129032258
174.0048334675963,-1577.4193548387098
175.0048612461457,-1587.0967741935485
176.0048890246951,-1587.0967741935485
177.00491680324453,-1574.1935483870968
178.00494458179392,-1564.516129032258
179.00497236034332,-1554.8387096774195
180.00500013889274,-1551.6129032258063
181.00502791744213,-1558.0645161290322
182.00505569599153,-1574.1935483870968
183.00508347454095,-1583.8709677419354
184.00511125309035,-1587.0967741935485
185.00513903163974,-1580.6451612903224
186.00516681018917,-1567.741935483871
187.00519458873856,-1558.0645161290322
188.00522236728796,-1551.6129032258063
189.00525014583738,-1554.8387096774195
190.00527792438677,-1567.741935483871
191.00530570293617,-1580.6451612903224
192.0053334814856,-1587.0967741935485
193.005361260035,-1583.8709677419354
194.00538903858438,-1570.967741935484
195.00541681713378,-1561.2903225806451
196.0054445956832,-1551.6129032258063
197.0054723742326,-1551.6129032258063
198.005500152782,-1564.516129032258
199.00552793133141,-1577.4193548387098
200.0055557098808,-1587.0967741935485
201.0055834884302,-1587.0967741935485
202.00561126697963,-1574.1935483870968
203.00563904552902,-1564.516129032258
204.00566682407842,-1554.8387096774195
205.00569460262784,-1551.6129032258063
206.00572238117724,-1558.0645161290322
207.00575015972663,-1574.1935483870968
208.00577793827605,-1583.8709677419354
209.00580571682545,-1587.0967741935485
210.00583349537484,-1580.6451612903224
211.00586127392427,-1567.741935483871
212.00588905247366,-1558.0645161290322
213.00591683102306,-1551.6129032258063
214.00594460957248,-1554.8387096774195
215.00597238812188,-1567.741935483871
216.00600016667127,-1580.6451612903224
217.0060279452207,-1587.0967741935485
218.0060557237701,-1583.8709677419354
219.00608350231948,-1570.967741935484
220.00611128086888,-1561.2903225806451
221.0061390594183,-1551.6129032258063
222.0061668379677,-1551.6129032258063
223.0061946165171,-1564.516129032258
224.00622239506652,-1577.4193548387098
225.0062501736159,-1587.0967741935485
226.0062779521653,-1587.0967741935485
227.00630573071473,-1574.1935483870968
228.00633350926412,-1564.516129032258
229.00636128781352,-1554.8387096774195
230.00638906636294,-1551.6129032258063
231.00641684491234,-1558.0645161290322
232.00644462346173,-1574.1935483870968
233.00647240201116,-1583.8709677419354
234.00650018056055,-1587.0967741935485
235.00652795910995,-1580.6451612903224
236.00655573765937,-1567.741935483871
237.00658351620876,-1558.0645161290322
238.00661129475816,-1551.6129032258063
239.00663907330758,-1554.8387096774195
240.00666685185698,-1567.741935483871
241.00669463040637,-1580.6451612903224
242.0067224089558,-1587.0967741935485
243.0067501875052,-1583.8709677419354
244.00677796605459,-1570.967741935484
245.00680574460398,-1561.2903225806451
246.0068335231534,-1551.6129032258063
247.0068613017028,-1551.6129032258063
248.0068890802522,-1564.516129032258
249.00691685880162,-1577.4193548387098
250.006944637351,-1587.0967741935485
251.0069724159004,-1587.0967741935485
252.00700019444983,-1574.1935483870968
253.00702797299923,-1564.516129032258
254.00705575154862,-1554.8387096774195
255.00708353009804,-1551.6129032258063
256.00711130864744,-1558.0645161290322
257.00713908719683,-1574.1935483870968
258.0071668657462,-1583.8709677419354
259.0071946442956,-1587.0967741935485
260.0072224228451,-1580.6451612903224
261.00725020139447,-1567.741935483871
262.00727797994386,-1558.0645161290322
263.00730575849326,-1551.6129032258063
264.00733353704265,-1554.8387096774195
265.00736131559205,-1567.741935483871
266.0073890941415,-1580.6451612903224
267.0074168726909,-1587.0967741935485
268.0074446512403,-1583.8709677419354
269.0074724297897,-1570.967741935484
270.0075002083391,-1561.2903225806451
271.0075279868885,-1551.6129032258063
272.0075557654379,-1551.6129032258063
273.0075835439873,-1564.516129032258
274.0076113225367,-1577.4193548387098
275.0076391010861,-1587.0967741935485
276.0076668796355,-1587.0967741935485
277.0076946581849,-1574.1935483870968
278.00772243673435,-1564.516129032258
279.00775021528375,-1554.8387096774195
280.00777799383314,-1551.6129032258063
281.00780577238254,-1558.0645161290322
282.00783355093193,-1574.1935483870968
283.00786132948133,-1583.8709677419354
284.0078891080307,-1587.0967741935485
285.0079168865802,-1580.6451612903224
286.00794466512957,-1567.741935483871
287.00797244367897,-1558.0645161290322
288.00800022222836,-1551.6129032258063
289.00802800077776,-1554.8387096774195
290.00805577932715,-1567.741935483871
291.0080835578766,-1580.6451612903224
292.008111336426,-1587.0967741935485
293.0081391149754,-1583.8709677419354
294.0081668935248,-1570.967741935484
295.0081946720742,-1561.2903225806451
296.0082224506236,-1551.6129032258063
297.00825022917303,-1551.6129032258063
298.0082780077224,-1564.516129032258
299.0083057862718,-1577.4193548387098
300.0083335648212,-1587.0967741935485
301.0083613433706,-1587.0967741935485
302.00838912192,-1577.4193548387098
303.00841690046946,-1564.516129032258
304.00844467901885,-1554.8387096774195
305.00847245756825,-1551.6129032258063
306.00850023611764,-1558.0645161290322
307.00852801466704,-1574.1935483870968
308.00855579321643,-1583.8709677419354
309.0085835717658,-1587.0967741935485
310.0086113503153,-1580.6451612903224
311.0086391288647,-1567.741935483871
312.00866690741407,-1558.0645161290322
313.00869468596346,-1551.6129032258063
314.00872246451286,-1554.8387096774195
315.00875024306225,-1567.741935483871
316.0087780216117,-1580.6451612903224
317.0088058001611,-1587.0967741935485
318.0088335787105,-1583.8709677419354
319.0088613572599,-1570.967741935484
320.0088891358093,-1561.2903225806451
321.0089169143587,-1551.6129032258063
322.00894469290813,-1551.6129032258063
323.0089724714575,-1564.516129032258
324.0090002500069,-1577.4193548387098
325.0090280285563,-1587.0967741935485
326.0090558071057,-1587.0967741935485
327.0090835856551,-1577.4193548387098
328.00911136420456,-1564.516129032258
329.00913914275395,-1554.8387096774195
330.00916692130335,-1551.6129032258063
331.00919469985274,-1558.0645161290322
332.00922247840214,-1574.1935483870968
333.00925025695153,-1583.8709677419354
334.0092780355009,-1587.0967741935485
335.0093058140504,-1580.6451612903224
336.0093335925998,-1567.741935483871
337.00936137114917,-1558.0645161290322
338.00938914969856,-1551.6129032258063
339.00941692824796,-1554.8387096774195
340.00944470679735,-1567.741935483871
341.0094724853468,-1580.6451612903224
342.0095002638962,-1587.0967741935485
343.0095280424456,-1583.8709677419354
344.009555820995,-1570.967741935484
345.0095835995444,-1561.2903225806451
346.0096113780938,-1551.6129032258063
347.00963915664323,-1551.6129032258063
348.0096669351926,-1564.516129032258
349.009694713742,-1577.4193548387098
350.0097224922914,-1587.0967741935485
351.0097502708408,-1587.0967741935485
352.0097780493902,-1577.4193548387098
353.00980582793966,-1564.516129032258
354.00983360648905,-1554.8387096774195
355.00986138503845,-1551.6129032258063
356.00988916358784,-1558.0645161290322
357.00991694213724,-1574.1935483870968
358.00994472068663,-1583.8709677419354
359.009972499236,-1590.3225806451612
360.0100002777855,-1580.6451612903224
361.0100280563349,-1567.741935483871
362.01005583488427,-1558.0645161290322
363.01008361343366,-1551.6129032258063
364.01011139198306,-1554.8387096774195
365.01013917053245,-1567.741935483871
366.0101669490819,-1580.6451612903224
367.0101947276313,-1590.3225806451612
368.0102225061807,-1583.8709677419354
369.0102502847301,-1570.967741935484
370.0102780632795,-1561.2903225806451
371.0103058418289,-1551.6129032258063
372.01033362037833,-1551.6129032258063
373.0103613989277,-1564.516129032258
374.0103891774771,-1577.4193548387098
375.0104169560265,-1587.0967741935485
376.0104447345759,-1587.0967741935485
377.0104725131253,-1577.4193548387098
378.01050029167476,-1564.516129032258
379.01052807022415,-1554.8387096774195
380.01055584877355,-1551.6129032258063
381.01058362732294,-1558.0645161290322
382.01061140587234,-1574.1935483870968
383.01063918442173,-1583.8709677419354
384.0106669629712,-1590.3225806451612
385.0106947415206,-1580.6451612903224
386.01072252007,-1567.741935483871
387.01075029861937,-1558.0645161290322
388.01077807716877,-1551.6129032258063
389.01080585571816,-1554.8387096774195
390.01083363426756,-1567.741935483871
391.010861412817,-1580.6451612903224
392.0108891913664,-1590.3225806451612
393.0109169699158,-1583.8709677419354
394.0109447484652,-1570.967741935484
395.0109725270146,-1561.2903225806451
396.011000305564,-1551.6129032258063
397.01102808411343,-1551.6129032258063
398.01105586266283,-1564.516129032258
399.0110836412122,-1577.4193548387098
400.0111114197616,-1587.0967741935485
401.011139198311,-1587.0967741935485
402.0111669768604,-1577.4193548387098
403.01119475540986,-1564.516129032258
404.01122253395926,-1554.8387096774195
405.01125031250865,-1551.6129032258063
406.01127809105805,-1558.0645161290322
407.01130586960744,-1574.1935483870968
408.01133364815684,-1583.8709677419354
409.0113614267063,-1590.3225806451612
410.0113892052557,-1580.6451612903224
411.0114169838051,-1567.741935483871
412.0114447623545,-1558.0645161290322
413.01147254090387,-1551.6129032258063
414.01150031945326,-1554.8387096774195
415.01152809800266,-1567.741935483871
416.0115558765521,-1580.6451612903224
417.0115836551015,-1590.3225806451612
418.0116114336509,-1583.8709677419354
419.0116392122003,-1574.1935483870968
420.0116669907497,-1561.2903225806451
421.0116947692991,-1554.8387096774195
422.01172254784854,-1551.6129032258063
423.01175032639793,-1564.516129032258
424.0117781049473,-1577.4193548387098
425.0118058834967,-1587.0967741935485
426.0118336620461,-1587.0967741935485
427.0118614405955,-1577.4193548387098
428.01188921914496,-1564.516129032258
429.01191699769436,-1554.8387096774195
430.01194477624375,-1551.6129032258063
431.01197255479315,-1558.0645161290322
432.01200033334254,-1574.1935483870968
433.01202811189194,-1583.8709677419354
434.0120558904414,-1590.3225806451612
435.0120836689908,-1580.6451612903224
436.0121114475402,-1567.741935483871
437.0121392260896,-1558.0645161290322
438.01216700463897,-1551.6129032258063
439.01219478318836,-1554.8387096774195
440.01222256173776,-1567.741935483871
441.0122503402872,-1580.6451612903224
442.0122781188366,-1590.3225806451612
443.012305897386,-1583.8709677419354
444.0123336759354,-1574.1935483870968
445.0123614544848,-1561.2903225806451
446.0123892330342,-1554.8387096774195
447.01241701158364,-1551.6129032258063
448.01244479013303,-1564.516129032258
449.0124725686824,-1577.4193548387098
450.0125003472318,-1587.0967741935485
451.0125281257812,-1587.0967741935485
452.0125559043306,-1577.4193548387098
453.01258368288006,-1564.516129032258
454.01261146142946,-1554.8387096774195
455.01263923997885,-1551.6129032258063
456.01266701852825,-1558.0645161290322
457.01269479707764,-1574.1935483870968
458.01272257562704,-1583.8709677419354
459.0127503541765,-1590.3225806451612
460.0127781327259,-1580.6451612903224
461.0128059112753,-1567.741935483871
462.0128336898247,-1558.0645161290322
463.01286146837407,-1551.6129032258063
464.01288924692346,-1554.8387096774195
465.01291702547286,-1567.741935483871
466.0129448040223,-1580.6451612903224
467.0129725825717,-1590.3225806451612
468.0130003611211,-1583.8709677419354
469.0130281396705,-1574.1935483870968
470.0130559182199,-1561.2903225806451
471.0130836967693,-1554.8387096774195
472.01311147531874,-1551.6129032258063
473.01313925386813,-1564.516129032258
474.0131670324175,-1577.4193548387098
475.0131948109669,-1587.0967741935485
476.0132225895163,-1587.0967741935485
477.0132503680657,-1577.4193548387098
478.01327814661516,-1564.516129032258
479.01330592516456,-1554.8387096774195
480.01333370371395,-1551.6129032258063
481.01336148226335,-1558.0645161290322
482.01338926081274,-1574.1935483870968
483.01341703936214,-1583.8709677419354
484.0134448179116,-1590.3225806451612
485.013472596461,-1580.6451612903224
486.0135003750104,-1567.741935483871
487.0135281535598,-1558.0645161290322
488.01355593210917,-1551.6129032258063
489.01358371065857,-1554.8387096774195
490.01361148920796,-1567.741935483871
491.0136392677574,-1580.6451612903224
492.0136670463068,-1590.3225806451612
493.0136948248562,-1583.8709677419354
494.0137226034056,-1574.1935483870968
495.013750381955,-1561.2903225806451
496.0137781605044,-1554.8387096774195
497.01380593905384,-1551.6129032258063
498.01383371760323,-1564.516129032258
499.01386149615263,-1577.4193548387098
500.013889274702,-1587.0967741935485
501.0139170532514,-1587.0967741935485
502.0139448318008,-1577.4193548387098
503.01397261035027,-1564.516129032258
504.01400038889966,-1554.8387096774195
505.01402816744906,-1551.6129032258063
506.01405594599845,-1558.0645161290322
507.01408372454785,-1574.1935483870968
508.01411150309724,-1583.8709677419354
509.0141392816467,-1590.3225806451612
510.0141670601961,-1580.6451612903224
511.0141948387455,-1567.741935483871
512.0142226172949,-1558.0645161290322
513.0142503958443,-1551.6129032258063
514.0142781743937,-1554.8387096774195
515.0143059529431,-1567.741935483871
516.0143337314925,-1580.6451612903224
517.0143615100419,-1590.3225806451612
518.0143892885912,-1583.8709677419354
519.0144170671407,-1574.1935483870968
520.0144448456902,-1561.2903225806451
521.0144726242395,-1554.8387096774195
522.0145004027889,-1551.6129032258063
523.0145281813383,-1564.516129032258
524.0145559598877,-1577.4193548387098
525.0145837384372,-1587.0967741935485
526.0146115169865,-1587.0967741935485
527.014639295536,-1577.4193548387098
528.0146670740853,-1564.516129032258
529.0146948526348,-1554.8387096774195
530.0147226311841,-1551.6129032258063
531.0147504097336,-1558.0645161290322
532.014778188283,-1574.1935483870968
533.0148059668323,-1583.8709677419354
534.0148337453818,-1590.3225806451612
535.0148615239311,-1580.6451612903224
536.0148893024806,-1570.967741935484
537.01491708103,-1558.0645161290322
538.0149448595794,-1551.6129032258063
539.0149726381288,-1554.8387096774195
540.0150004166782,-1567.741935483871
541.0150281952276,-1580.6451612903224
542.015055973777,-1590.3225806451612
543.0150837523264,-1587.0967741935485
544.0151115308759,-1574.1935483870968
545.0151393094252,-1561.2903225806451
546.0151670879746,-1554.8387096774195
547.015194866524,-1551.6129032258063
548.0152226450734,-1564.516129032258
549.0152504236228,-1577.4193548387098
550.0152782021722,-1587.0967741935485
551.0153059807217,-1587.0967741935485
552.015333759271,-1577.4193548387098
553.0153615378205,-1564.516129032258
554.0153893163698,-1554.8387096774195
555.0154170949193,-1551.6129032258063
556.0154448734687,-1558.0645161290322
557.015472652018,-1570.967741935484
558.0155004305675,-1583.8709677419354
559.0155282091168,-1590.3225806451612
560.0155559876663,-1580.6451612903224
561.0155837662156,-1570.967741935484
562.0156115447651,-1558.0645161290322
563.0156393233145,-1551.6129032258063
564.0156671018639,-1554.8387096774195
565.0156948804133,-1567.741935483871
566.0157226589627,-1580.6451612903224
567.0157504375121,-1590.3225806451612
568.0157782160614,-1587.0967741935485
569.0158059946109,-1574.1935483870968
570.0158337731604,-1561.2903225806451
571.0158615517097,-1554.8387096774195
572.0158893302591,-1551.6129032258063
573.0159171088085,-1564.516129032258
574.0159448873579,-1577.4193548387098
575.0159726659074,-1587.0967741935485
576.0160004444567,-1587.0967741935485
577.0160282230062,-1577.4193548387098
578.0160560015555,-1564.516129032258
579.016083780105,-1558.0645161290322
580.0161115586543,-1551.6129032258063
581.0161393372038,-1558.0645161290322
582.0161671157532,-1570.967741935484
583.0161948943025,-1583.8709677419354
584.016222672852,-1590.3225806451612
585.0162504514013,-1580.6451612903224
586.0162782299508,-1570.967741935484
587.0163060085002,-1558.0645161290322
588.0163337870496,-1551.6129032258063
589.016361565599,-1554.8387096774195
590.0163893441484,-1567.741935483871
591.0164171226978,-1580.6451612903224
592.0164449012472,-1590.3225806451612
593.0164726797966,-1587.0967741935485
594.0165004583461,-1574.1935483870968
595.0165282368954,-1561.2903225806451
596.0165560154448,-1554.8387096774195
597.0165837939942,-1551.6129032258063
598.0166115725436,-1564.516129032258
599.016639351093,-1577.4193548387098
600.0166671296424,-1587.0967741935485
601.0166949081919,-1587.0967741935485
602.0167226867412,-1577.4193548387098
603.0167504652907,-1564.516129032258
604.01677824384,-1558.0645161290322
605.0168060223895,-1551.6129032258063
606.0168338009389,-1558.0645161290322
607.0168615794882,-1570.967741935484
608.0168893580377,-1583.8709677419354
609.016917136587,-1590.3225806451612
610.0169449151365,-1580.6451612903224
611.0169726936858,-1570.967741935484
612.0170004722353,-1558.0645161290322
613.0170282507847,-1551.6129032258063
614.0170560293341,-1554.8387096774195
615.0170838078835,-1567.741935483871
616.0171115864329,-1580.6451612903224
617.0171393649823,-1590.3225806451612
618.0171671435317,-1587.0967741935485
619.0171949220811,-1574.1935483870968
620.0172227006306,-1561.2903225806451
621.0172504791799,-1554.8387096774195
622.0172782577293,-1551.6129032258063
623.0173060362787,-1564.516129032258
624.0173338148281,-1577.4193548387098
625.0173615933776,-1587.0967741935485
626.0173893719269,-1587.0967741935485
627.0174171504764,-1577.4193548387098
628.0174449290257,-1564.516129032258
629.0174727075752,-1558.0645161290322
630.0175004861245,-1551.6129032258063
631.017528264674,-1558.0645161290322
632.0175560432234,-1570.967741935484
633.0175838217727,-1583.8709677419354
634.0176116003222,-1590.3225806451612
635.0176393788715,-1580.6451612903224
636.017667157421,-1570.967741935484
637.0176949359704,-1558.0645161290322
638.0177227145198,-1551.6129032258063
639.0177504930692,-1554.8387096774195
640.0177782716186,-1567.741935483871
641.017806050168,-1580.6451612903224
642.0178338287174,-1590.3225806451612
643.0178616072668,-1587.0967741935485
644.0178893858163,-1574.1935483870968
645.0179171643656,-1561.2903225806451
646.017944942915,-1554.8387096774195
647.0179727214644,-1551.6129032258063
648.0180005000138,-1564.516129032258
649.0180282785632,-1577.4193548387098
650.0180560571126,-1587.0967741935485
651.0180838356621,-1587.0967741935485
652.0181116142114,-1577.4193548387098
653.0181393927609,-1567.741935483871
654.0181671713102,-1558.0645161290322
655.0181949498597,-1551.6129032258063
656.0182227284091,-1558.0645161290322
657.0182505069585,-1570.967741935484
658.0182782855079,-1583.8709677419354
659.0183060640572,-1590.3225806451612
660.0183338426067,-1583.8709677419354
661.018361621156,-1570.967741935484
662.0183893997055,-1561.2903225806451
663.0184171782549,-1551.6129032258063
664.0184449568043,-1554.8387096774195
665.0184727353537,-1567.741935483871
666.0185005139031,-1580.6451612903224
667.0185282924525,-1590.3225806451612
668.0185560710019,-1587.0967741935485
669.0185838495513,-1574.1935483870968
670.0186116281008,-1564.516129032258
671.0186394066501,-1554.8387096774195
672.0186671851995,-1551.6129032258063
673.0186949637489,-1564.516129032258
674.0187227422983,-1577.4193548387098
675.0187505208478,-1587.0967741935485
676.0187782993971,-1587.0967741935485
677.0188060779466,-1577.4193548387098
678.0188338564959,-1567.741935483871
679.0188616350454,-1558.0645161290322
680.0188894135947,-1551.6129032258063
681.0189171921442,-1558.0645161290322
682.0189449706936,-1570.967741935484
683.018972749243,-1583.8709677419354
684.0190005277924,-1590.3225806451612
685.0190283063417,-1583.8709677419354
686.0190560848912,-1570.967741935484
687.0190838634406,-1561.2903225806451
688.01911164199,-1551.6129032258063
689.0191394205394,-1554.8387096774195
690.0191671990888,-1567.741935483871
691.0191949776382,-1580.6451612903224
692.0192227561876,-1590.3225806451612
693.019250534737,-1587.0967741935485
694.0192783132865,-1574.1935483870968
695.0193060918358,-1564.516129032258
696.0193338703853,-1554.8387096774195
697.0193616489346,-1551.6129032258063
698.019389427484,-1564.516129032258
699.0194172060334,-1577.4193548387098
700.0194449845828,-1587.0967741935485
701.0194727631323,-1587.0967741935485
702.0195005416816,-1577.4193548387098
703.0195283202311,-1567.741935483871
704.0195560987804,-1558.0645161290322
705.0195838773299,-1551.6129032258063
706.0196116558793,-1558.0645161290322
707.0196394344287,-1570.967741935484
708.0196672129781,-1583.8709677419354
709.0196949915274,-1590.3225806451612
710.0197227700769,-1583.8709677419354
711.0197505486262,-1570.967741935484
712.0197783271757,-1561.2903225806451
713.0198061057251,-1551.6129032258063
714.0198338842745,-1554.8387096774195
715.0198616628239,-1567.741935483871
716.0198894413733,-1580.6451612903224
717.0199172199227,-1590.3225806451612
718.019944998472,-1587.0967741935485
719.0199727770215,-1574.1935483870968
720.020000555571,-1564.516129032258
721.0200283341203,-1554.8387096774195
722.0200561126697,-1551.6129032258063
723.0200838912191,-1561.2903225806451
724.0201116697685,-1577.4193548387098
725.020139448318,-1587.0967741935485
726.0201672268673,-1587.0967741935485
727.0201950054168,-1577.4193548387098
728.0202227839661,-1567.741935483871
729.0202505625156,-1558.0645161290322
730.0202783410649,-1551.6129032258063
731.0203061196144,-1558.0645161290322
732.0203338981638,-1570.967741935484
733.0203616767132,-1583.8709677419354
734.0203894552626,-1590.3225806451612
735.0204172338119,-1583.8709677419354
736.0204450123614,-1570.967741935484
737.0204727909108,-1561.2903225806451
738.0205005694602,-1551.6129032258063
739.0205283480096,-1554.8387096774195
740.020556126559,-1567.741935483871
741.0205839051084,-1580.6451612903224
742.0206116836578,-1590.3225806451612
743.0206394622072,-1587.0967741935485
744.0206672407567,-1574.1935483870968
745.020695019306,-1564.516129032258
746.0207227978555,-1554.8387096774195
747.0207505764048,-1551.6129032258063
748.0207783549542,-1564.516129032258
749.0208061335036,-1577.4193548387098
750.020833912053,-1587.0967741935485
751.0208616906025,-1590.3225806451612
752.0208894691518,-1577.4193548387098
753.0209172477013,-1567.741935483871
754.0209450262506,-1558.0645161290322
755.0209728048001,-1551.6129032258063
756.0210005833495,-1558.0645161290322
757.0210283618989,-1570.967741935484
758.0210561404483,-1583.8709677419354
759.0210839189976,-1590.3225806451612
760.0211116975471,-1583.8709677419354
761.0211394760964,-1570.967741935484
762.0211672546459,-1561.2903225806451
763.0211950331953,-1551.6129032258063
764.0212228117447,-1554.8387096774195
765.0212505902941,-1567.741935483871
766.0212783688435,-1580.6451612903224
767.0213061473929,-1590.3225806451612
768.0213339259424,-1587.0967741935485
769.0213617044917,-1574.1935483870968
770.0213894830412,-1564.516129032258
771.0214172615905,-1554.8387096774195
772.02144504014,-1554.8387096774195
773.0214728186893,-1564.516129032258
774.0215005972387,-1577.4193548387098
775.0215283757882,-1587.0967741935485
776.0215561543375,-1590.3225806451612
777.021583932887,-1577.4193548387098
778.0216117114363,-1567.741935483871
779.0216394899858,-1558.0645161290322
780.0216672685351,-1551.6129032258063
781.0216950470846,-1558.0645161290322
782.021722825634,-1570.967741935484
783.0217506041834,-1583.8709677419354
784.0217783827328,-1590.3225806451612
785.0218061612821,-1583.8709677419354
786.0218339398316,-1570.967741935484
787.021861718381,-1561.2903225806451
788.0218894969304,-1551.6129032258063
789.0219172754798,-1554.8387096774195
790.0219450540292,-1567.741935483871
791.0219728325786,-1580.6451612903224
792.022000611128,-1590.3225806451612
793.0220283896774,-1587.0967741935485
794.0220561682269,-1574.1935483870968
795.0220839467762,-1564.516129032258
796.0221117253257,-1554.8387096774195
797.022139503875,-1554.8387096774195
798.0221672824244,-1561.2903225806451
799.0221950609738,-1577.4193548387098
800.0222228395232,-1587.0967741935485
801.0222506180727,-1590.3225806451612
802.022278396622,-1577.4193548387098
803.0223061751715,-1567.741935483871
804.0223339537208,-1558.0645161290322
805.0223617322703,-1551.6129032258063
806.0223895108197,-1558.0645161290322
807.0224172893691,-1570.967741935484
808.0224450679185,-1583.8709677419354
809.0224728464678,-1590.3225806451612
810.0225006250173,-1583.8709677419354
811.0225284035666,-1570.967741935484
812.0225561821161,-1561.2903225806451
813.0225839606655,-1551.6129032258063
814.0226117392149,-1554.8387096774195
815.0226395177643,-1567.741935483871
816.0226672963137,-1580.6451612903224
817.0226950748631,-1590.3225806451612
818.0227228534126,-1587.0967741935485
819.0227506319619,-1574.1935483870968
820.0227784105114,-1564.516129032258
821.0228061890607,-1554.8387096774195
822.0228339676102,-1551.6129032258063
823.0228617461595,-1561.2903225806451
824.022889524709,-1577.4193548387098
825.0229173032584,-1587.0967741935485
826.0229450818077,-1590.3225806451612
827.0229728603572,-1577.4193548387098
828.0230006389065,-1567.741935483871
829.023028417456,-1558.0645161290322
830.0230561960053,-1551.6129032258063
831.0230839745548,-1558.0645161290322
832.0231117531042,-1570.967741935484
833.0231395316536,-1583.8709677419354
834.023167310203,-1590.3225806451612
835.0231950887523,-1583.8709677419354
836.0232228673018,-1570.967741935484
837.0232506458512,-1561.2903225806451
838.0232784244006,-1551.6129032258063
839.02330620295,-1554.8387096774195
840.0233339814994,-1567.741935483871
841.0233617600488,-1580.6451612903224
842.0233895385982,-1590.3225806451612
843.0234173171476,-1587.0967741935485
844.0234450956971,-1574.1935483870968
845.0234728742464,-1564.516129032258
846.0235006527959,-1554.8387096774195
847.0235284313452,-1551.6129032258063
848.0235562098947,-1561.2903225806451
849.023583988444,-1577.4193548387098
850.0236117669934,-1587.0967741935485
851.0236395455429,-1590.3225806451612
852.0236673240922,-1577.4193548387098
853.0236951026417,-1567.741935483871
854.023722881191,-1558.0645161290322
855.0237506597405,-1551.6129032258063
856.0237784382899,-1558.0645161290322
857.0238062168393,-1570.967741935484
858.0238339953887,-1583.8709677419354
859.023861773938,-1590.3225806451612
860.0238895524875,-1583.8709677419354
861.0239173310368,-1570.967741935484
862.0239451095863,-1561.2903225806451
863.0239728881357,-1551.6129032258063
864.0240006666851,-1554.8387096774195
865.0240284452345,-1567.741935483871
866.0240562237839,-1580.6451612903224
867.0240840023333,-1590.3225806451612
868.0241117808828,-1587.0967741935485
869.0241395594321,-1574.1935483870968
870.0241673379816,-1564.516129032258
871.0241951165309,-1554.8387096774195
872.0242228950804,-1551.6129032258063
873.0242506736297,-1561.2903225806451
874.0242784521791,-1577.4193548387098
875.0243062307286,-1587.0967741935485
876.0243340092779,-1590.3225806451612
877.0243617878274,-1577.4193548387098
878.0243895663767,-1567.741935483871
879.0244173449262,-1558.0645161290322
880.0244451234755,-1551.6129032258063
881.024472902025,-1558.0645161290322
882.0245006805744,-1570.967741935484
883.0245284591238,-1583.8709677419354
884.0245562376732,-1590.3225806451612
885.0245840162225,-1583.8709677419354
886.024611794772,-1570.967741935484
887.0246395733215,-1561.2903225806451
888.0246673518708,-1551.6129032258063
889.0246951304202,-1554.8387096774195
890.0247229089696,-1567.741935483871
891.024750687519,-1580.6451612903224
892.0247784660684,-1590.3225806451612
893.0248062446178,-1587.0967741935485
894.0248340231673,-1574.1935483870968
895.0248618017166,-1564.516129032258
896.0248895802661,-1554.8387096774195
897.0249173588154,-1551.6129032258063
898.0249451373649,-1561.2903225806451
899.0249729159142,-1577.4193548387098
900.0250006944636,-1587.0967741935485
901.0250284730131,-1590.3225806451612
902.0250562515624,-1580.6451612903224
903.0250840301119,-1567.741935483871
904.0251118086612,-1558.0645161290322
905.0251395872107,-1551.6129032258063
906.0251673657601,-1558.0645161290322
907.0251951443095,-1570.967741935484
908.0252229228589,-1583.8709677419354
909.0252507014083,-1590.3225806451612
910.0252784799577,-1583.8709677419354
911.025306258507,-1570.967741935484
912.0253340370565,-1561.2903225806451
913.025361815606,-1551.6129032258063
914.0253895941553,-1554.8387096774195
915.0254173727047,-1567.741935483871
916.0254451512541,-1580.6451612903224
917.0254729298035,-1590.3225806451612
918.025500708353,-1587.0967741935485
919.0255284869023,-1574.1935483870968
920.0255562654518,-1564.516129032258
921.0255840440011,-1554.8387096774195
922.0256118225506,-1551.6129032258063
923.0256396010999,-1561.2903225806451
924.0256673796493,-1577.4193548387098
925.0256951581988,-1587.0967741935485
926.0257229367481,-1590.3225806451612
927.0257507152976,-1580.6451612903224
928.0257784938469,-1567.741935483871
929.0258062723964,-1558.0645161290322
930.0258340509457,-1551.6129032258063
931.0258618294952,-1558.0645161290322
932.0258896080446,-1570.967741935484
933.025917386594,-1583.8709677419354
934.0259451651434,-1590.3225806451612
935.0259729436928,-1583.8709677419354
936.0260007222422,-1570.967741935484
937.0260285007917,-1561.2903225806451
938.026056279341,-1551.6129032258063
939.0260840578904,-1554.8387096774195
940.0261118364398,-1567.741935483871
941.0261396149892,-1580.6451612903224
942.0261673935386,-1590.3225806451612
943.026195172088,-1587.0967741935485
944.0262229506375,-1574.1935483870968
945.0262507291868,-1564.516129032258
946.0262785077363,-1554.8387096774195
947.0263062862856,-1551.6129032258063
948.026334064835,-1561.2903225806451
949.0263618433844,-1574.1935483870968
950.0263896219338,-1587.0967741935485
951.0264174004833,-1590.3225806451612
952.0264451790326,-1580.6451612903224
953.0264729575821,-1567.741935483871
954.0265007361314,-1558.0645161290322
955.0265285146809,-1551.6129032258063
956.0265562932303,-1558.0645161290322
957.0265840717797,-1570.967741935484
958.0266118503291,-1583.8709677419354
959.0266396288785,-1590.3225806451612
960.0266674074279,-1583.8709677419354
961.0266951859772,-1570.967741935484
962.0267229645267,-1561.2903225806451
963.0267507430761,-1551.6129032258063
964.0267785216255,-1554.8387096774195
965.0268063001749,-1567.741935483871
966.0268340787243,-1580.6451612903224
967.0268618572737,-1590.3225806451612
968.0268896358232,-1587.0967741935485
969.0269174143725,-1574.1935483870968
970.026945192922,-1564.516129032258
971.0269729714713,-1554.8387096774195
972.0270007500208,-1551.6129032258063
973.0270285285701,-1561.2903225806451
974.0270563071196,-1574.1935483870968
975.027084085669,-1587.0967741935485
976.0271118642183,-1590.3225806451612
977.0271396427678,-1580.6451612903224
978.0271674213171,-1567.741935483871
979.0271951998666,-1558.0645161290322
980.0272229784159,-1551.6129032258063
981.0272507569654,-1558.0645161290322
982.0272785355148,-1570.967741935484
983.0273063140642,-1583.8709677419354
984.0273340926136,-1590.3225806451612
985.027361871163,-1583.8709677419354
986.0273896497124,-1570.967741935484
987.0274174282619,-1561.2903225806451
988.0274452068112,-1554.8387096774195
989.0274729853606,-1554.8387096774195
990.02750076391,-1567.741935483871
991.0275285424594,-1580.6451612903224
992.0275563210088,-1590.3225806451612
993.0275840995582,-1587.0967741935485
994.0276118781077,-1574.1935483870968
995.027639656657,-1564.516129032258
996.0276674352065,-1554.8387096774195
997.0276952137558,-1551.6129032258063
998.0277229923053,-1561.2903225806451
999.0277507708546,-1574.1935483870968
1000.027778549404,-1587.0967741935485
1001.0278063279535,-1590.3225806451612
1002.0278341065028,-1580.6451612903224
1003.0278618850523,-1567.741935483871
1004.0278896636016,-1558.0645161290322
1005.0279174421511,-1551.6129032258063
1006.0279452207005,-1558.0645161290322
1007.0279729992499,-1570.967741935484
1008.0280007777993,-1583.8709677419354
1009.0280285563487,-1590.3225806451612
1010.0280563348981,-1583.8709677419354
1011.0280841134474,-1570.967741935484
1012.0281118919969,-1561.2903225806451
1013.0281396705464,-1551.6129032258063
1014.0281674490957,-1554.8387096774195
1015.0281952276451,-1567.741935483871
1016.0282230061945,-1580.6451612903224
1017.0282507847439,-1590.3225806451612
1018.0282785632934,-1587.0967741935485
1019.0283063418427,-1574.1935483870968
1020.0283341203922,-1564.516129032258
1021.0283618989415,-1554.8387096774195
1022.028389677491,-1551.6129032258063
1023.0284174560403,-1561.2903225806451
1024.0284452345898,-1574.1935483870968
1025.028473013139,-1587.0967741935485
1026.0285007916887,-1590.3225806451612
1027.028528570238,-1580.6451612903224
1028.0285563487873,-1567.741935483871
1029.0285841273367,-1558.0645161290322
1030.0286119058862,-1551.6129032258063
1031.0286396844356,-1558.0645161290322
1032.028667462985,-1570.967741935484
1033.0286952415345,-1583.8709677419354
1034.0287230200838,-1590.3225806451612
1035.0287507986332,-1583.8709677419354
1036.0287785771825,-1570.967741935484
1037.028806355732,-1561.2903225806451
1038.0288341342814,-1554.8387096774195
1039.0288619128307,-1554.8387096774195
1040.0288896913803,-1567.741935483871
1041.0289174699296,-1580.6451612903224
1042.028945248479,-1590.3225806451612
1043.0289730270285,-1587.0967741935485
1044.0290008055779,-1574.1935483870968
1045.0290285841272,-1564.516129032258
1046.0290563626766,-1554.8387096774195
1047.0290841412261,-1551.6129032258063
1048.0291119197755,-1561.2903225806451
1049.0291396983248,-1574.1935483870968
1050.0291674768744,-1587.0967741935485
1051.0291952554237,-1590.3225806451612
1052.029223033973,-1580.6451612903224
1053.0292508125224,-1567.741935483871
1054.029278591072,-1558.0645161290322
1055.0293063696213,-1551.6129032258063
1056.0293341481706,-1558.0645161290322
1057.0293619267202,-1570.967741935484
1058.0293897052695,-1583.8709677419354
1059.0294174838189,-1590.3225806451612
1060.0294452623682,-1583.8709677419354
1061.0294730409178,-1570.967741935484
1062.029500819467,-1561.2903225806451
1063.0295285980164,-1554.8387096774195
1064.029556376566,-1554.8387096774195
1065.0295841551153,-1567.741935483871
1066.0296119336647,-1580.6451612903224
1067.029639712214,-1590.3225806451612
1068.0296674907636,-1587.0967741935485
1069.029695269313,-1574.1935483870968
1070.0297230478623,-1564.516129032258
1071.0297508264118,-1554.8387096774195
1072.0297786049612,-1551.6129032258063
1073.0298063835105,-1561.2903225806451
1074.02983416206,-1574.1935483870968
1075.0298619406094,-1587.0967741935485
1076.0298897191587,-1590.3225806451612
1077.029917497708,-1580.6451612903224
1078.0299452762576,-1567.741935483871
1079.029973054807,-1558.0645161290322
1080.0300008333563,-1551.6129032258063
1081.030028611906,-1558.0645161290322
1082.0300563904552,-1570.967741935484
1083.0300841690046,-1583.8709677419354
1084.030111947554,-1590.3225806451612
1085.0301397261035,-1583.8709677419354
1086.0301675046528,-1570.967741935484
1087.0301952832021,-1561.2903225806451
1088.0302230617517,-1554.8387096774195
1089.030250840301,-1554.8387096774195
1090.0302786188504,-1567.741935483871
1091.0303063973997,-1580.6451612903224
1092.0303341759493,-1587.0967741935485
1093.0303619544986,-1587.0967741935485
1094.030389733048,-1574.1935483870968
1095.0304175115975,-1564.516129032258
1096.0304452901469,-1554.8387096774195
1097.0304730686962,-1551.6129032258063
1098.0305008472455,-1561.2903225806451
1099.0305286257951,-1574.1935483870968
1100.0305564043445,-1587.0967741935485
1101.0305841828938,-1590.3225806451612
1102.0306119614434,-1580.6451612903224
1103.0306397399927,-1567.741935483871
1104.030667518542,-1558.0645161290322
1105.0306952970914,-1551.6129032258063
1106.030723075641,-1558.0645161290322
1107.0307508541903,-1570.967741935484
1108.0307786327396,-1583.8709677419354
1109.0308064112892,-1590.3225806451612
1110.0308341898385,-1583.8709677419354
1111.0308619683879,-1570.967741935484
1112.0308897469374,-1561.2903225806451
1113.0309175254868,-1554.8387096774195
1114.030945304036,-1554.8387096774195
1115.0309730825854,-1567.741935483871
1116.031000861135,-1580.6451612903224
1117.0310286396843,-1587.0967741935485
1118.0310564182337,-1587.0967741935485
1119.0310841967832,-1574.1935483870968
1120.0311119753326,-1564.516129032258
1121.031139753882,-1554.8387096774195
1122.0311675324313,-1551.6129032258063
1123.0311953109808,-1561.2903225806451
1124.0312230895302,-1574.1935483870968
1125.0312508680795,-1587.0967741935485
1126.031278646629,-1590.3225806451612
1127.0313064251784,-1580.6451612903224
1128.0313342037277,-1567.741935483871
1129.031361982277,-1558.0645161290322
1130.0313897608266,-1551.6129032258063
1131.031417539376,-1558.0645161290322
1132.0314453179253,-1570.967741935484
1133.0314730964749,-1583.8709677419354
1134.0315008750242,-1590.3225806451612
1135.0315286535736,-1583.8709677419354
1136.031556432123,-1570.967741935484
1137.0315842106725,-1561.2903225806451
1138.0316119892218,-1554.8387096774195
1139.0316397677711,-1554.8387096774195
1140.0316675463207,-1567.741935483871
1141.03169532487,-1580.6451612903224
1142.0317231034194,-1587.0967741935485
1143.031750881969,-1587.0967741935485
1144.0317786605183,-1574.1935483870968
1145.0318064390676,-1564.516129032258
1146.031834217617,-1554.8387096774195
1147.0318619961665,-1551.6129032258063
1148.0318897747159,-1561.2903225806451
1149.0319175532652,-1574.1935483870968
1150.0319453318148,-1587.0967741935485
1151.031973110364,-1590.3225806451612
1152.0320008889134,-1580.6451612903224
1153.0320286674628,-1567.741935483871
1154.0320564460123,-1558.0645161290322
1155.0320842245617,-1551.6129032258063
1156.032112003111,-1558.0645161290322
1157.0321397816606,-1570.967741935484
1158.03216756021,-1583.8709677419354
1159.0321953387593,-1590.3225806451612
1160.0322231173086,-1583.8709677419354
1161.0322508958582,-1570.967741935484
1162.0322786744075,-1561.2903225806451
1163.0323064529568,-1554.8387096774195
1164.0323342315064,-1554.8387096774195
1165.0323620100557,-1564.516129032258
1166.032389788605,-1580.6451612903224
1167.0324175671544,-1587.0967741935485
1168.032445345704,-1587.0967741935485
1169.0324731242533,-1574.1935483870968
1170.0325009028027,-1564.516129032258
1171.0325286813522,-1554.8387096774195
1172.0325564599016,-1551.6129032258063
1173.032584238451,-1561.2903225806451
1174.0326120170005,-1574.1935483870968
1175.0326397955498,-1587.0967741935485
1176.0326675740992,-1590.3225806451612
1177.0326953526485,-1580.6451612903224
1178.032723131198,-1567.741935483871
1179.0327509097474,-1558.0645161290322
1180.0327786882967,-1551.6129032258063
1181.0328064668463,-1558.0645161290322
1182.0328342453956,-1570.967741935484
1183.032862023945,-1583.8709677419354
1184.0328898024943,-1590.3225806451612
1185.0329175810439,-1583.8709677419354
1186.0329453595932,-1570.967741935484
1187.0329731381426,-1561.2903225806451
1188.0330009166921,-1554.8387096774195
1189.0330286952415,-1554.8387096774195
1190.0330564737908,-1564.516129032258
1191.0330842523401,-1580.6451612903224
1192.0331120308897,-1587.0967741935485
1193.033139809439,-1587.0967741935485
1194.0331675879884,-1574.1935483870968
1195.033195366538,-1564.516129032258
1196.0332231450873,-1554.8387096774195
1197.0332509236366,-1551.6129032258063
1198.033278702186,-1561.2903225806451
1199.0333064807355,-1574.1935483870968
1200.0333342592849,-1587.0967741935485
1201.0333620378342,-1590.3225806451612
1202.0333898163838,-1580.6451612903224
1203.033417594933,-1567.741935483871
1204.0334453734824,-1558.0645161290322
1205.0334731520318,-1551.6129032258063
1206.0335009305813,-1558.0645161290322
1207.0335287091307,-1570.967741935484
1208.03355648768,-1583.8709677419354
1209.0335842662296,-1590.3225806451612
1210.033612044779,-1583.8709677419354
1211.0336398233283,-1570.967741935484
1212.0336676018778,-1561.2903225806451
1213.0336953804272,-1554.8387096774195
1214.0337231589765,-1554.8387096774195
1215.0337509375258,-1564.516129032258
1216.0337787160754,-1580.6451612903224
1217.0338064946247,-1587.0967741935485
1218.033834273174,-1587.0967741935485
1219.0338620517236,-1577.4193548387098
1220.033889830273,-1564.516129032258
1221.0339176088223,-1554.8387096774195
1222.0339453873717,-1551.6129032258063
1223.0339731659212,-1561.2903225806451
1224.0340009444706,-1574.1935483870968
1225.03402872302,-1587.0967741935485
1226.0340565015695,-1590.3225806451612
1227.0340842801188,-1580.6451612903224
1228.0341120586681,-1567.741935483871
1229.0341398372175,-1558.0645161290322
1230.034167615767,-1551.6129032258063
1231.0341953943164,-1558.0645161290322
1232.0342231728657,-1570.967741935484
1233.0342509514153,-1583.8709677419354
1234.0342787299646,-1590.3225806451612
1235.034306508514,-1583.8709677419354
1236.0343342870633,-1570.967741935484
1237.0343620656129,-1561.2903225806451
1238.0343898441622,-1554.8387096774195
1239.0344176227115,-1554.8387096774195
1240.034445401261,-1564.516129032258
1241.0344731798104,-1580.6451612903224
1242.0345009583598,-1587.0967741935485
1243.0345287369094,-1587.0967741935485
1244.0345565154587,-1577.4193548387098
1245.034584294008,-1564.516129032258
1246.0346120725574,-1554.8387096774195
1247.034639851107,-1551.6129032258063
1248.0346676296563,-1561.2903225806451
1249.0346954082056,-1574.1935483870968
1250.0347231867552,-1587.0967741935485
1251.0347509653045,-1590.3225806451612
1252.0347787438538,-1580.6451612903224
1253.0348065224032,-1567.741935483871
1254.0348343009528,-1558.0645161290322
1255.034862079502,-1551.6129032258063
1256.0348898580514,-1558.0645161290322
1257.034917636601,-1570.967741935484
1258.0349454151503,-1583.8709677419354
1259.0349731936997,-1590.3225806451612
1260.035000972249,-1583.8709677419354
1261.0350287507986,-1570.967741935484
1262.035056529348,-1561.2903225806451
1263.0350843078973,-1554.8387096774195
1264.0351120864468,-1554.8387096774195
1265.0351398649962,-1564.516129032258
1266.0351676435455,-1580.6451612903224
1267.0351954220948,-1587.0967741935485
1268.0352232006444,-1587.0967741935485
1269.0352509791937,-1577.4193548387098
1270.035278757743,-1564.516129032258
1271.0353065362926,-1554.8387096774195
1272.035334314842,-1551.6129032258063
1273.0353620933913,-1561.2903225806451
1274.0353898719409,-1574.1935483870968
1275.0354176504902,-1587.0967741935485
1276.0354454290396,-1590.3225806451612
1277.035473207589,-1580.6451612903224
1278.0355009861385,-1567.741935483871
1279.0355287646878,-1558.0645161290322
1280.0355565432371,-1551.6129032258063
1281.0355843217867,-1558.0645161290322
1282.035612100336,-1570.967741935484
1283.0356398788854,-1583.8709677419354
1284.0356676574347,-1590.3225806451612
1285.0356954359843,-1583.8709677419354
1286.0357232145336,-1570.967741935484
1287.035750993083,-1561.2903225806451
1288.0357787716325,-1554.8387096774195
1289.0358065501819,-1554.8387096774195
1290.0358343287312,-1564.516129032258
1291.0358621072805,-1577.4193548387098
1292.03588988583,-1587.0967741935485
1293.0359176643794,-1587.0967741935485
1294.0359454429288,-1577.4193548387098
1295.0359732214783,-1564.516129032258
1296.0360010000277,-1554.8387096774195
1297.036028778577,-1551.6129032258063
1298.0360565571264,-1561.2903225806451
1299.036084335676,-1574.1935483870968
1300.0361121142253,-1587.0967741935485
1301.0361398927746,-1590.3225806451612
1302.0361676713242,-1580.6451612903224
1303.0361954498735,-1567.741935483871
1304.0362232284228,-1558.0645161290322
1305.0362510069724,-1551.6129032258063
1306.0362787855217,-1558.0645161290322
1307.036306564071,-1570.967741935484
1308.0363343426204,-1583.8709677419354
1309.03636212117,-1590.3225806451612
1310.0363898997193,-1583.8709677419354
1311.0364176782687,-1570.967741935484
1312.0364454568182,-1561.2903225806451
1313.0364732353676,-1554.8387096774195
1314.036501013917,-1554.8387096774195
1315.0365287924662,-1564.516129032258
1316.0365565710158,-1577.4193548387098
1317.0365843495651,-1587.0967741935485
1318.0366121281145,-1587.0967741935485
1319.036639906664,-1577.4193548387098
1320.0366676852134,-1564.516129032258
1321.0366954637627,-1554.8387096774195
1322.036723242312,-1551.6129032258063
1323.0367510208616,-1561.2903225806451
1324.036778799411,-1574.1935483870968
1325.0368065779603,-1587.0967741935485
1326.0368343565099,-1590.3225806451612
1327.0368621350592,-1580.6451612903224
1328.0368899136085,-1567.741935483871
1329.0369176921579,-1558.0645161290322
1330.0369454707075,-1551.6129032258063
1331.0369732492568,-1558.0645161290322
1332.0370010278061,-1570.967741935484
1333.0370288063557,-1583.8709677419354
1334.037056584905,-1590.3225806451612
1335.0370843634544,-1583.8709677419354
1336.0371121420037,-1570.967741935484
1337.0371399205533,-1561.2903225806451
1338.0371676991026,-1554.8387096774195
1339.037195477652,-1554.8387096774195
1340.0372232562015,-1564.516129032258
1341.0372510347509,-1577.4193548387098
1342.0372788133002,-1587.0967741935485
1343.0373065918498,-1587.0967741935485
1344.037334370399,-1577.4193548387098
1345.0373621489484,-1564.516129032258
1346.0373899274978,-1554.8387096774195
1347.0374177060473,-1551.6129032258063
1348.0374454845967,-1561.2903225806451
1349.037473263146,-1574.1935483870968
1350.0375010416956,-1587.0967741935485
1351.037528820245,-1590.3225806451612
1352.0375565987943,-1580.6451612903224
1353.0375843773436,-1567.741935483871
1354.0376121558932,-1558.0645161290322
1355.0376399344425,-1551.6129032258063
1356.0376677129918,-1558.0645161290322
1357.0376954915414,-1570.967741935484
1358.0377232700907,-1583.8709677419354
1359.03775104864,-1590.3225806451612
1360.0377788271894,-1583.8709677419354
1361.037806605739,-1570.967741935484
1362.0378343842883,-1561.2903225806451
1363.0378621628377,-1554.8387096774195
1364.0378899413872,-1554.8387096774195
1365.0379177199366,-1564.516129032258
1366.037945498486,-1577.4193548387098
1367.0379732770352,-1587.0967741935485
1368.0380010555848,-1587.0967741935485
1369.0380288341341,-1577.4193548387098
1370.0380566126835,-1564.516129032258
1371.038084391233,-1554.8387096774195
1372.0381121697824,-1551.6129032258063
1373.0381399483317,-1561.2903225806451
1374.0381677268813,-1574.1935483870968
1375.0381955054306,-1587.0967741935485
1376.03822328398,-1590.3225806451612
1377.0382510625293,-1580.6451612903224
1378.0382788410789,-1567.741935483871
1379.0383066196282,-1558.0645161290322
1380.0383343981775,-1551.6129032258063
1381.038362176727,-1558.0645161290322
1382.0383899552764,-1570.967741935484
1383.0384177338258,-1583.8709677419354
1384.0384455123751,-1590.3225806451612
1385.0384732909247,-1583.8709677419354
1386.038501069474,-1570.967741935484
1387.0385288480234,-1561.2903225806451
1388.038556626573,-1554.8387096774195
1389.0385844051223,-1554.8387096774195
1390.0386121836716,-1564.516129032258
1391.038639962221,-1577.4193548387098
1392.0386677407705,-1587.0967741935485
1393.0386955193198,-1587.0967741935485
1394.0387232978692,-1577.4193548387098
1395.0387510764187,-1564.516129032258
1396.038778854968,-1554.8387096774195
1397.0388066335174,-1551.6129032258063
1398.0388344120668,-1561.2903225806451
1399.0388621906163,-1574.1935483870968
1400.0388899691657,-1587.0967741935485
1401.038917747715,-1590.3225806451612
1402.0389455262646,-1580.6451612903224
1403.038973304814,-1567.741935483871
1404.0390010833632,-1558.0645161290322
1405.0390288619128,-1551.6129032258063
1406.0390566404621,-1558.0645161290322
1407.0390844190115,-1570.967741935484
1408.0391121975608,-1583.8709677419354
1409.0391399761104,-1590.3225806451612
1410.0391677546597,-1583.8709677419354
1411.039195533209,-1570.967741935484
1412.0392233117586,-1561.2903225806451
1413.039251090308,-1554.8387096774195
1414.0392788688573,-1554.8387096774195
1415.0393066474066,-1564.516129032258
1416.0393344259562,-1577.4193548387098
1417.0393622045056,-1587.0967741935485
1418.039389983055,-1587.0967741935485
1419.0394177616045,-1577.4193548387098
1420.0394455401538,-1564.516129032258
1421.0394733187031,-1554.8387096774195
1422.0395010972525,-1551.6129032258063
1423.039528875802,-1561.2903225806451
1424.0395566543514,-1574.1935483870968
1425.0395844329007,-1587.0967741935485
1426.0396122114503,-1590.3225806451612
1427.0396399899996,-1580.6451612903224
1428.039667768549,-1567.741935483871
1429.0396955470983,-1558.0645161290322
1430.0397233256479,-1551.6129032258063
1431.0397511041972,-1558.0645161290322
1432.0397788827465,-1570.967741935484
1433.039806661296,-1583.8709677419354
1434.0398344398454,-1590.3225806451612
1435.0398622183948,-1583.8709677419354
1436.039889996944,-1570.967741935484
1437.0399177754937,-1561.2903225806451
1438.039945554043,-1554.8387096774195
1439.0399733325924,-1554.8387096774195
1440.040001111142,-1564.516129032258
1441.0400288896913,-1577.4193548387098
1442.0400566682406,-1587.0967741935485
1443.0400844467902,-1587.0967741935485
1444.0401122253395,-1577.4193548387098
1445.0401400038888,-1564.516129032258
1446.0401677824382,-1554.8387096774195
1447.0401955609877,-1551.6129032258063
1448.040223339537,-1561.2903225806451
1449.0402511180864,-1574.1935483870968
1450.040278896636,-1587.0967741935485
1451.0403066751853,-1590.3225806451612
1452.0403344537347,-1580.6451612903224
1453.040362232284,-1567.741935483871
1454.0403900108336,-1558.0645161290322
1455.040417789383,-1551.6129032258063
1456.0404455679322,-1558.0645161290322
1457.0404733464818,-1570.967741935484
1458.0405011250311,-1583.8709677419354
1459.0405289035805,-1590.3225806451612
1460.0405566821298,-1583.8709677419354
1461.0405844606794,-1570.967741935484
1462.0406122392287,-1561.2903225806451
1463.040640017778,-1554.8387096774195
1464.0406677963276,-1554.8387096774195
1465.040695574877,-1564.516129032258
1466.0407233534263,-1577.4193548387098
1467.0407511319756,-1587.0967741935485
1468.0407789105252,-1587.0967741935485
1469.0408066890745,-1577.4193548387098
1470.0408344676239,-1564.516129032258
1471.0408622461734,-1554.8387096774195
1472.0408900247228,-1551.6129032258063
1473.0409178032721,-1561.2903225806451
1474.0409455818217,-1574.1935483870968
1475.040973360371,-1587.0967741935485
1476.0410011389204,-1590.3225806451612
1477.0410289174697,-1580.6451612903224
1478.0410566960193,-1567.741935483871
1479.0410844745686,-1558.0645161290322
1480.041112253118,-1551.6129032258063
1481.0411400316675,-1558.0645161290322
1482.0411678102168,-1570.967741935484
1483.0411955887662,-1583.8709677419354
1484.0412233673155,-1590.3225806451612
1485.041251145865,-1583.8709677419354
1486.0412789244144,-1570.967741935484
1487.0413067029638,-1561.2903225806451
1488.0413344815133,-1554.8387096774195
1489.0413622600627,-1554.8387096774195
1490.041390038612,-1564.516129032258
1491.0414178171613,-1577.4193548387098
1492.041445595711,-1587.0967741935485
1493.0414733742602,-1587.0967741935485
1494.0415011528096,-1577.4193548387098
1495.0415289313592,-1564.516129032258
1496.0415567099085,-1554.8387096774195
1497.0415844884578,-1551.6129032258063
1498.0416122670072,-1561.2903225806451
1499.0416400455567,-1574.1935483870968
1500.041667824106,-1587.0967741935485
1501.0416956026554,-1590.3225806451612
1502.041723381205,-1580.6451612903224
1503.0417511597543,-1567.741935483871
1504.0417789383037,-1558.0645161290322
1505.0418067168532,-1551.6129032258063
1506.0418344954026,-1558.0645161290322
1507.041862273952,-1570.967741935484
1508.0418900525012,-1583.8709677419354
1509.0419178310508,-1590.3225806451612
1510.0419456096001,-1583.8709677419354
1511.0419733881495,-1570.967741935484
1512.042001166699,-1561.2903225806451
1513.0420289452484,-1554.8387096774195
1514.0420567237977,-1554.8387096774195
1515.042084502347,-1564.516129032258
1516.0421122808966,-1577.4193548387098
1517.042140059446,-1587.0967741935485
1518.0421678379953,-1587.0967741935485
1519.0421956165449,-1577.4193548387098
1520.0422233950942,-1564.516129032258
1521.0422511736435,-1554.8387096774195
1522.0422789521929,-1551.6129032258063
1523.0423067307424,-1561.2903225806451
1524.0423345092918,-1574.1935483870968
1525.0423622878411,-1587.0967741935485
1526.0423900663907,-1590.3225806451612
1527.04241784494,-1580.6451612903224
1528.0424456234894,-1567.741935483871
1529.0424734020387,-1558.0645161290322
1530.0425011805883,-1551.6129032258063
1531.0425289591376,-1558.0645161290322
1532.042556737687,-1570.967741935484
1533.0425845162365,-1583.8709677419354
1534.0426122947858,-1590.3225806451612
1535.0426400733352,-1583.8709677419354
1536.0426678518847,-1570.967741935484
1537.042695630434,-1561.2903225806451
1538.0427234089834,-1554.8387096774195
1539.0427511875328,-1554.8387096774195
1540.0427789660823,-1564.516129032258
1541.0428067446317,-1577.4193548387098
1542.042834523181,-1587.0967741935485
1543.0428623017306,-1587.0967741935485
1544.04289008028,-1577.4193548387098
1545.0429178588292,-1564.516129032258
1546.0429456373786,-1554.8387096774195
1547.0429734159281,-1551.6129032258063
1548.0430011944775,-1561.2903225806451
1549.0430289730268,-1574.1935483870968
1550.0430567515764,-1587.0967741935485
1551.0430845301257,-1590.3225806451612
1552.043112308675,-1580.6451612903224
1553.0431400872244,-1567.741935483871
1554.043167865774,-1558.0645161290322
1555.0431956443233,-1551.6129032258063
1556.0432234228726,-1558.0645161290322
1557.0432512014222,-1570.967741935484
1558.0432789799715,-1583.8709677419354
1559.0433067585209,-1590.3225806451612
1560.0433345370702,-1583.8709677419354
1561.0433623156198,-1570.967741935484
1562.0433900941691,-1561.2903225806451
1563.0434178727185,-1554.8387096774195
1564.043445651268,-1554.8387096774195
1565.0434734298174,-1564.516129032258
1566.0435012083667,-1577.4193548387098
1567.043528986916,-1587.0967741935485
1568.0435567654656,-1587.0967741935485
1569.043584544015,-1577.4193548387098
1570.0436123225643,-1564.516129032258
1571.0436401011139,-1554.8387096774195
1572.0436678796632,-1551.6129032258063
1573.0436956582125,-1561.2903225806451
1574.043723436762,-1574.1935483870968
1575.0437512153114,-1587.0967741935485
1576.0437789938608,-1590.3225806451612
1577.04380677241,-1580.6451612903224
1578.0438345509597,-1567.741935483871
1579.043862329509,-1558.0645161290322
1580.0438901080583,-1551.6129032258063
1581.043917886608,-1558.0645161290322
1582.0439456651573,-1570.967741935484
1583.0439734437066,-1583.8709677419354
1584.044001222256,-1590.3225806451612
1585.0440290008055,-1583.8709677419354
1586.0440567793548,-1570.967741935484
1587.0440845579042,-1561.2903225806451
1588.0441123364537,-1554.8387096774195
1589.044140115003,-1554.8387096774195
1590.0441678935524,-1564.516129032258
1591.0441956721018,-1577.4193548387098
1592.0442234506513,-1587.0967741935485
1593.0442512292007,-1587.0967741935485
1594.04427900775,-1577.4193548387098
1595.0443067862996,-1564.516129032258
1596.044334564849,-1554.8387096774195
1597.0443623433982,-1551.6129032258063
1598.0443901219476,-1561.2903225806451
1599.0444179004971,-1574.1935483870968
1600.0444456790465,-1587.0967741935485
1601.0444734575958,-1590.3225806451612
1602.0445012361454,-1580.6451612903224
1603.0445290146947,-1567.741935483871
1604.044556793244,-1558.0645161290322
1605.0445845717936,-1551.6129032258063
1606.044612350343,-1558.0645161290322
1607.0446401288923,-1570.967741935484
1608.0446679074416,-1583.8709677419354
1609.0446956859912,-1590.3225806451612
1610.0447234645405,-1583.8709677419354
1611.0447512430899,-1570.967741935484
1612.0447790216394,-1561.2903225806451
1613.0448068001888,-1554.8387096774195
1614.0448345787381,-1554.8387096774195
1615.0448623572875,-1564.516129032258
1616.044890135837,-1577.4193548387098
1617.0449179143864,-1587.0967741935485
1618.0449456929357,-1587.0967741935485
1619.0449734714853,-1577.4193548387098
1620.0450012500346,-1564.516129032258
1621.045029028584,-1554.8387096774195
1622.0450568071333,-1551.6129032258063
1623.0450845856828,-1561.2903225806451
1624.0451123642322,-1574.1935483870968
1625.0451401427815,-1587.0967741935485
1626.045167921331,-1590.3225806451612
1627.0451956998804,-1580.6451612903224
1628.0452234784298,-1567.741935483871
1629.045251256979,-1558.0645161290322
1630.0452790355287,-1551.6129032258063
1631.045306814078,-1558.0645161290322
1632.0453345926273,-1570.967741935484
1633.045362371177,-1583.8709677419354
1634.0453901497262,-1590.3225806451612
1635.0454179282756,-1583.8709677419354
1636.0454457068251,-1570.967741935484
1637.0454734853745,-1561.2903225806451
1638.0455012639238,-1554.8387096774195
1639.0455290424732,-1554.8387096774195
1640.0455568210227,-1564.516129032258
1641.045584599572,-1577.4193548387098
1642.0456123781214,-1587.0967741935485
1643.045640156671,-1587.0967741935485
1644.0456679352203,-1577.4193548387098
1645.0456957137696,-1564.516129032258
1646.045723492319,-1554.8387096774195
1647.0457512708685,-1551.6129032258063
1648.045779049418,-1561.2903225806451
1649.0458068279672,-1574.1935483870968
1650.0458346065168,-1587.0967741935485
1651.0458623850661,-1590.3225806451612
1652.0458901636155,-1580.6451612903224
1653.0459179421648,-1567.741935483871
1654.0459457207144,-1558.0645161290322
1655.0459734992637,-1551.6129032258063
1656.046001277813,-1558.0645161290322
1657.0460290563626,-1570.967741935484
1658.046056834912,-1583.8709677419354
1659.0460846134613,-1590.3225806451612
1660.0461123920106,-1583.8709677419354
1661.0461401705602,-1574.1935483870968
1662.0461679491095,-1561.2903225806451
1663.0461957276589,-1554.8387096774195
1664.0462235062084,-1554.8387096774195
1665.0462512847578,-1564.516129032258
1666.046279063307,-1577.4193548387098
1667.0463068418564,-1587.0967741935485
1668.046334620406,-1587.0967741935485
1669.0463623989554,-1577.4193548387098
1670.0463901775047,-1564.516129032258
1671.0464179560543,-1554.8387096774195
1672.0464457346036,-1551.6129032258063
1673.046473513153,-1561.2903225806451
1674.0465012917025,-1574.1935483870968
1675.0465290702518,-1587.0967741935485
1676.0465568488012,-1590.3225806451612
1677.0465846273505,-1580.6451612903224
1678.0466124059,-1567.741935483871
1679.0466401844494,-1558.0645161290322
1680.0466679629988,-1551.6129032258063
1681.0466957415483,-1558.0645161290322
1682.0467235200977,-1570.967741935484
1683.046751298647,-1583.8709677419354
1684.0467790771963,-1590.3225806451612
1685.046806855746,-1583.8709677419354
1686.0468346342952,-1574.1935483870968
1687.0468624128446,-1561.2903225806451
1688.0468901913941,-1554.8387096774195
1689.0469179699435,-1554.8387096774195
1690.0469457484928,-1564.516129032258
1691.0469735270422,-1577.4193548387098
1692.0470013055917,-1587.0967741935485
1693.047029084141,-1587.0967741935485
1694.0470568626904,-1577.4193548387098
1695.04708464124,-1564.516129032258
1696.0471124197893,-1554.8387096774195
1697.0471401983386,-1551.6129032258063
1698.047167976888,-1561.2903225806451
1699.0471957554375,-1574.1935483870968
1700.0472235339869,-1587.0967741935485
1701.0472513125362,-1590.3225806451612
1702.0472790910858,-1580.6451612903224
1703.0473068696351,-1567.741935483871
1704.0473346481845,-1558.0645161290322
1705.047362426734,-1551.6129032258063
1706.0473902052834,-1558.0645161290322
1707.0474179838327,-1570.967741935484
1708.047445762382,-1583.8709677419354
1709.0474735409316,-1590.3225806451612
1710.047501319481,-1583.8709677419354
1711.0475290980303,-1574.1935483870968
1712.0475568765798,-1561.2903225806451
1713.0475846551292,-1554.8387096774195
1714.0476124336785,-1554.8387096774195
1715.0476402122279,-1564.516129032258
1716.0476679907774,-1577.4193548387098
1717.0476957693268,-1587.0967741935485
1718.047723547876,-1587.0967741935485
1719.0477513264257,-1577.4193548387098
1720.047779104975,-1564.516129032258
1721.0478068835243,-1554.8387096774195
1722.0478346620737,-1551.6129032258063
1723.0478624406232,-1561.2903225806451
1724.0478902191726,-1574.1935483870968
1725.047917997722,-1587.0967741935485
1726.0479457762715,-1590.3225806451612
1727.0479735548208,-1580.6451612903224
1728.0480013333702,-1567.741935483871
1729.0480291119195,-1558.0645161290322
1730.048056890469,-1551.6129032258063
1731.0480846690184,-1558.0645161290322
1732.0481124475677,-1570.967741935484
1733.0481402261173,-1583.8709677419354
1734.0481680046666,-1590.3225806451612
1735.048195783216,-1583.8709677419354
1736.0482235617656,-1574.1935483870968
1737.048251340315,-1561.2903225806451
1738.0482791188642,-1554.8387096774195
1739.0483068974136,-1554.8387096774195
1740.0483346759631,-1564.516129032258
1741.0483624545125,-1577.4193548387098
1742.0483902330618,-1587.0967741935485
1743.0484180116114,-1587.0967741935485
1744.0484457901607,-1577.4193548387098
1745.04847356871,-1564.516129032258
1746.0485013472594,-1554.8387096774195
1747.048529125809,-1551.6129032258063
1748.0485569043583,-1561.2903225806451
1749.0485846829076,-1574.1935483870968
1750.0486124614572,-1587.0967741935485
1751.0486402400065,-1590.3225806451612
1752.0486680185559,-1580.6451612903224
1753.0486957971052,-1567.741935483871
1754.0487235756548,-1558.0645161290322
1755.0487513542041,-1551.6129032258063
1756.0487791327535,-1558.0645161290322
1757.048806911303,-1570.967741935484
1758.0488346898524,-1583.8709677419354
1759.0488624684017,-1590.3225806451612
1760.048890246951,-1583.8709677419354
1761.0489180255006,-1574.1935483870968
1762.04894580405,-1561.2903225806451
1763.0489735825993,-1554.8387096774195
1764.0490013611488,-1554.8387096774195
1765.0490291396982,-1564.516129032258
1766.0490569182475,-1577.4193548387098
1767.0490846967969,-1587.0967741935485
1768.0491124753464,-1587.0967741935485
1769.0491402538958,-1577.4193548387098
1770.049168032445,-1564.516129032258
1771.0491958109947,-1554.8387096774195
1772.049223589544,-1551.6129032258063
1773.0492513680933,-1561.2903225806451
1774.049279146643,-1574.1935483870968
1775.0493069251922,-1587.0967741935485
1776.0493347037416,-1590.3225806451612
1777.049362482291,-1580.6451612903224
1778.0493902608405,-1567.741935483871
1779.0494180393898,-1558.0645161290322
1780.0494458179392,-1551.6129032258063
1781.0494735964887,-1558.0645161290322
1782.049501375038,-1570.967741935484
1783.0495291535874,-1583.8709677419354
1784.0495569321367,-1590.3225806451612
1785.0495847106863,-1583.8709677419354
1786.0496124892356,-1574.1935483870968
1787.049640267785,-1561.2903225806451
1788.0496680463345,-1554.8387096774195
1789.0496958248839,-1554.8387096774195
1790.0497236034332,-1564.516129032258
1791.0497513819826,-1577.4193548387098
1792.0497791605321,-1587.0967741935485
1793.0498069390815,-1587.0967741935485
1794.0498347176308,-1577.4193548387098
1795.0498624961804,-1564.516129032258
1796.0498902747297,-1554.8387096774195
1797.049918053279,-1551.6129032258063
1798.0499458318284,-1561.2903225806451
1799.049973610378,-1574.1935483870968
1800.0500013889273,-1587.0967741935485
1801.0500291674766,-1590.3225806451612
1802.0500569460262,-1580.6451612903224
1803.0500847245755,-1567.741935483871
1804.0501125031249,-1558.0645161290322
1805.0501402816744,-1551.6129032258063
1806.0501680602238,-1558.0645161290322
1807.050195838773,-1570.967741935484
1808.0502236173224,-1583.8709677419354
1809.050251395872,-1590.3225806451612
1810.0502791744213,-1583.8709677419354
1811.0503069529707,-1574.1935483870968
1812.0503347315203,-1561.2903225806451
1813.0503625100696,-1554.8387096774195
1814.050390288619,-1554.8387096774195
1815.0504180671683,-1564.516129032258
1816.0504458457178,-1577.4193548387098
1817.0504736242672,-1587.0967741935485
1818.0505014028165,-1587.0967741935485
1819.050529181366,-1577.4193548387098
1820.0505569599154,-1564.516129032258
1821.0505847384647,-1554.8387096774195
1822.050612517014,-1551.6129032258063
1823.0506402955637,-1561.2903225806451
1824.050668074113,-1574.1935483870968
1825.0506958526623,-1587.0967741935485
1826.050723631212,-1590.3225806451612
1827.0507514097612,-1580.6451612903224
1828.0507791883106,-1567.741935483871
1829.05080696686,-1558.0645161290322
1830.0508347454095,-1551.6129032258063
1831.0508625239588,-1558.0645161290322
1832.0508903025082,-1570.967741935484
1833.0509180810577,-1583.8709677419354
1834.050945859607,-1590.3225806451612
1835.0509736381564,-1583.8709677419354
1836.051001416706,-1574.1935483870968
1837.0510291952553,-1561.2903225806451
1838.0510569738046,-1554.8387096774195
1839.051084752354,-1554.8387096774195
1840.0511125309035,-1564.516129032258
1841.0511403094529,-1577.4193548387098
1842.0511680880022,-1587.0967741935485
1843.0511958665518,-1587.0967741935485
1844.0512236451011,-1577.4193548387098
1845.0512514236505,-1564.516129032258
1846.0512792021998,-1554.8387096774195
1847.0513069807494,-1551.6129032258063
1848.0513347592987,-1561.2903225806451
1849.051362537848,-1574.1935483870968
1850.0513903163976,-1587.0967741935485
1851.051418094947,-1590.3225806451612
1852.0514458734963,-1580.6451612903224
1853.0514736520456,-1567.741935483871
1854.0515014305952,-1558.0645161290322
1855.0515292091445,-1551.6129032258063
1856.0515569876939,-1558.0645161290322
1857.0515847662434,-1570.967741935484
1858.0516125447928,-1583.8709677419354
1859.051640323342,-1590.3225806451612
1860.0516681018914,-1583.8709677419354
1861.051695880441,-1574.1935483870968
1862.0517236589903,-1561.2903225806451
1863.0517514375397,-1554.8387096774195
1864.0517792160892,-1554.8387096774195
1865.0518069946386,-1564.516129032258
1866.051834773188,-1577.4193548387098
1867.0518625517375,-1587.0967741935485
1868.0518903302868,-1587.0967741935485
1869.0519181088362,-1577.4193548387098
1870.0519458873855,-1564.516129032258
1871.051973665935,-1554.8387096774195
1872.0520014444844,-1551.6129032258063
1873.0520292230337,-1561.2903225806451
1874.0520570015833,-1574.1935483870968
1875.0520847801326,-1587.0967741935485
1876.052112558682,-1590.3225806451612
1877.0521403372313,-1580.6451612903224
1878.052168115781,-1567.741935483871
1879.0521958943302,-1558.0645161290322
1880.0522236728796,-1551.6129032258063
1881.0522514514291,-1558.0645161290322
1882.0522792299785,-1570.967741935484
1883.0523070085278,-1583.8709677419354
1884.0523347870771,-1590.3225806451612
1885.0523625656267,-1583.8709677419354
1886.052390344176,-1574.1935483870968
1887.0524181227254,-1561.2903225806451
1888.052445901275,-1554.8387096774195
1889.0524736798243,-1554.8387096774195
1890.0525014583736,-1564.516129032258
1891.052529236923,-1577.4193548387098
1892.0525570154725,-1587.0967741935485
1893.0525847940219,-1587.0967741935485
1894.0526125725712,-1577.4193548387098
1895.0526403511208,-1564.516129032258
1896.05266812967,-1554.8387096774195
1897.0526959082194,-1551.6129032258063
1898.0527236867688,-1561.2903225806451
1899.0527514653184,-1574.1935483870968
1900.0527792438677,-1587.0967741935485
1901.052807022417,-1590.3225806451612
1902.0528348009666,-1580.6451612903224
1903.052862579516,-1567.741935483871
1904.0528903580653,-1558.0645161290322
1905.0529181366148,-1551.6129032258063
1906.0529459151642,-1558.0645161290322
1907.0529736937135,-1570.967741935484
1908.0530014722628,-1583.8709677419354
1909.0530292508124,-1590.3225806451612
1910.0530570293618,-1583.8709677419354
1911.053084807911,-1574.1935483870968
1912.0531125864607,-1561.2903225806451
1913.05314036501,-1554.8387096774195
1914.0531681435593,-1554.8387096774195
1915.0531959221087,-1564.516129032258
1916.0532237006582,-1577.4193548387098
1917.0532514792076,-1587.0967741935485
1918.053279257757,-1587.0967741935485
1919.0533070363065,-1577.4193548387098
1920.0533348148558,-1564.516129032258
1921.0533625934052,-1558.0645161290322
1922.0533903719545,-1551.6129032258063
1923.053418150504,-1561.2903225806451
1924.0534459290534,-1574.1935483870968
1925.0534737076027,-1587.0967741935485
1926.0535014861523,-1590.3225806451612
1927.0535292647016,-1580.6451612903224
1928.053557043251,-1567.741935483871
1929.0535848218003,-1558.0645161290322
1930.0536126003499,-1551.6129032258063
1931.0536403788992,-1558.0645161290322
1932.0536681574486,-1570.967741935484
1933.0536959359981,-1583.8709677419354
1934.0537237145475,-1590.3225806451612
1935.0537514930968,-1583.8709677419354
1936.0537792716464,-1574.1935483870968
1937.0538070501957,-1561.2903225806451
1938.053834828745,-1554.8387096774195
1939.0538626072944,-1554.8387096774195
1940.053890385844,-1564.516129032258
1941.0539181643933,-1577.4193548387098
1942.0539459429426,-1587.0967741935485
1943.0539737214922,-1587.0967741935485
1944.0540015000415,-1577.4193548387098
1945.0540292785909,-1564.516129032258
1946.0540570571402,-1558.0645161290322
1947.0540848356898,-1551.6129032258063
1948.054112614239,-1561.2903225806451
1949.0541403927884,-1574.1935483870968
1950.054168171338,-1587.0967741935485
1951.0541959498873,-1590.3225806451612
1952.0542237284367,-1580.6451612903224
1953.054251506986,-1567.741935483871
1954.0542792855356,-1558.0645161290322
1955.054307064085,-1551.6129032258063
1956.0543348426343,-1558.0645161290322
1957.0543626211838,-1570.967741935484
1958.0543903997332,-1583.8709677419354
1959.0544181782825,-1590.3225806451612
1960.0544459568318,-1583.8709677419354
1961.0544737353814,-1574.1935483870968
1962.0545015139307,-1561.2903225806451
1963.05452929248,-1554.8387096774195
1964.0545570710296,-1554.8387096774195
1965.054584849579,-1564.516129032258
1966.0546126281283,-1577.4193548387098
1967.054640406678,-1587.0967741935485
1968.0546681852272,-1587.0967741935485
1969.0546959637766,-1577.4193548387098
1970.054723742326,-1564.516129032258
1971.0547515208755,-1558.0645161290322
1972.0547792994248,-1551.6129032258063
1973.0548070779741,-1561.2903225806451
1974.0548348565237,-1574.1935483870968
1975.054862635073,-1587.0967741935485
1976.0548904136224,-1590.3225806451612
1977.0549181921717,-1580.6451612903224
1978.0549459707213,-1567.741935483871
1979.0549737492706,-1558.0645161290322
1980.05500152782,-1551.6129032258063
1981.0550293063695,-1558.0645161290322
1982.0550570849189,-1570.967741935484
1983.0550848634682,-1583.8709677419354
1984.0551126420175,-1590.3225806451612
1985.055140420567,-1583.8709677419354
1986.0551681991165,-1574.1935483870968
1987.0551959776658,-1561.2903225806451
1988.0552237562154,-1554.8387096774195
1989.0552515347647,-1554.8387096774195
1990.055279313314,-1564.516129032258
1991.0553070918634,-1577.4193548387098
1992.055334870413,-1587.0967741935485
1993.0553626489623,-1587.0967741935485
1994.0553904275116,-1577.4193548387098
1995.0554182060612,-1564.516129032258
1996.0554459846105,-1558.0645161290322
1997.0554737631599,-1551.6129032258063
1998.0555015417092,-1561.2903225806451
1999.0555293202588,-1574.1935483870968
2000.055557098808,-1587.0967741935485
2001.0555848773574,-1590.3225806451612
2002.055612655907,-1580.6451612903224
2003.0556404344563,-1567.741935483871
2004.0556682130057,-1558.0645161290322
2005.0556959915552,-1551.6129032258063
2006.0557237701046,-1558.0645161290322
2007.055751548654,-1570.967741935484
2008.0557793272033,-1583.8709677419354
2009.0558071057528,-1590.3225806451612
2010.0558348843022,-1583.8709677419354
2011.0558626628515,-1574.1935483870968
2012.055890441401,-1561.2903225806451
2013.0559182199504,-1554.8387096774195
2014.0559459984997,-1554.8387096774195
2015.055973777049,-1564.516129032258
2016.0560015555986,-1577.4193548387098
2017.056029334148,-1587.0967741935485
2018.0560571126973,-1587.0967741935485
2019.0560848912469,-1577.4193548387098
2020.0561126697962,-1564.516129032258
2021.0561404483456,-1558.0645161290322
2022.056168226895,-1551.6129032258063
2023.0561960054445,-1561.2903225806451
2024.0562237839938,-1574.1935483870968
2025.0562515625431,-1587.0967741935485
2026.0562793410927,-1590.3225806451612
2027.056307119642,-1580.6451612903224
2028.0563348981914,-1567.741935483871
2029.0563626767407,-1558.0645161290322
2030.0563904552903,-1551.6129032258063
2031.0564182338396,-1558.0645161290322
2032.056446012389,-1570.967741935484
2033.0564737909385,-1583.8709677419354
2034.0565015694879,-1590.3225806451612
2035.0565293480372,-1583.8709677419354
2036.0565571265868,-1574.1935483870968
2037.056584905136,-1561.2903225806451
2038.0566126836854,-1554.8387096774195
2039.0566404622348,-1554.8387096774195
2040.0566682407843,-1564.516129032258
2041.0566960193337,-1577.4193548387098
2042.056723797883,-1587.0967741935485
2043.0567515764326,-1587.0967741935485
2044.056779354982,-1577.4193548387098
2045.0568071335313,-1564.516129032258
2046.0568349120806,-1558.0645161290322
2047.0568626906302,-1554.8387096774195
2048.0568904691795,-1561.2903225806451
2049.056918247729,-1574.1935483870968
2050.056946026278,-1587.0967741935485
2051.0569738048275,-1590.3225806451612
2052.0570015833773,-1580.6451612903224
2053.0570293619267,-1570.967741935484
2054.057057140476,-1558.0645161290322
2055.0570849190253,-1551.6129032258063
2056.0571126975747,-1558.0645161290322
2057.057140476124,-1570.967741935484
2058.0571682546733,-1583.8709677419354
2059.057196033223,-1590.3225806451612
2060.0572238117725,-1583.8709677419354
2061.057251590322,-1574.1935483870968
2062.057279368871,-1561.2903225806451
2063.0573071474205,-1554.8387096774195
2064.05733492597,-1554.8387096774195
2065.057362704519,-1564.516129032258
2066.057390483069,-1577.4193548387098
2067.0574182616183,-1587.0967741935485
2068.0574460401676,-1587.0967741935485
2069.057473818717,-1577.4193548387098
2070.0575015972663,-1564.516129032258
2071.0575293758156,-1558.0645161290322
2072.057557154365,-1551.6129032258063
2073.057584932915,-1561.2903225806451
2074.057612711464,-1574.1935483870968
2075.0576404900135,-1587.0967741935485
2076.057668268563,-1590.3225806451612
2077.057696047112,-1580.6451612903224
2078.0577238256615,-1567.741935483871
2079.057751604211,-1558.0645161290322
2080.0577793827606,-1551.6129032258063
2081.05780716131,-1558.0645161290322
2082.0578349398593,-1570.967741935484
2083.0578627184086,-1583.8709677419354
2084.057890496958,-1590.3225806451612
2085.0579182755073,-1583.8709677419354
2086.057946054057,-1574.1935483870968
2087.0579738326064,-1561.2903225806451
2088.0580016111558,-1554.8387096774195
2089.058029389705,-1554.8387096774195
2090.0580571682544,-1564.516129032258
2091.058084946804,-1577.4193548387098
2092.058112725353,-1587.0967741935485
2093.058140503903,-1587.0967741935485
2094.0581682824522,-1577.4193548387098
2095.0581960610016,-1564.516129032258
2096.058223839551,-1558.0645161290322
2097.0582516181003,-1551.6129032258063
2098.0582793966496,-1561.2903225806451
2099.058307175199,-1574.1935483870968
2100.0583349537487,-1587.0967741935485
2101.058362732298,-1590.3225806451612
2102.0583905108474,-1580.6451612903224
2103.0584182893967,-1567.741935483871
2104.058446067946,-1558.0645161290322
2105.0584738464954,-1551.6129032258063
2106.0585016250448,-1558.0645161290322
2107.0585294035945,-1570.967741935484
2108.058557182144,-1583.8709677419354
2109.058584960693,-1590.3225806451612
2110.0586127392426,-1583.8709677419354
2111.058640517792,-1574.1935483870968
2112.0586682963412,-1561.2903225806451
2113.0586960748906,-1554.8387096774195
2114.0587238534404,-1554.8387096774195
2115.0587516319897,-1564.516129032258
2116.058779410539,-1577.4193548387098
2117.0588071890884,-1587.0967741935485
2118.0588349676377,-1587.0967741935485
2119.058862746187,-1577.4193548387098
2120.0588905247364,-1564.516129032258
2121.058918303286,-1558.0645161290322
2122.0589460818355,-1551.6129032258063
2123.058973860385,-1561.2903225806451
2124.059001638934,-1574.1935483870968
2125.0590294174835,-1587.0967741935485
2126.059057196033,-1590.3225806451612
2127.059084974582,-1580.6451612903224
2128.059112753132,-1567.741935483871
2129.0591405316814,-1558.0645161290322
2130.0591683102307,-1551.6129032258063
2131.05919608878,-1558.0645161290322
2132.0592238673294,-1570.967741935484
2133.0592516458787,-1583.8709677419354
2134.059279424428,-1590.3225806451612
2135.059307202978,-1583.8709677419354
2136.059334981527,-1574.1935483870968
2137.0593627600765,-1561.2903225806451
2138.059390538626,-1554.8387096774195
2139.059418317175,-1554.8387096774195
2140.0594460957245,-1564.516129032258
2141.059473874274,-1577.4193548387098
2142.0595016528237,-1587.0967741935485
2143.059529431373,-1587.0967741935485
2144.0595572099223,-1577.4193548387098
2145.0595849884717,-1564.516129032258
2146.059612767021,-1558.0645161290322
2147.0596405455703,-1551.6129032258063
2148.05966832412,-1561.2903225806451
2149.0596961026695,-1574.1935483870968
2150.059723881219,-1587.0967741935485
2151.059751659768,-1590.3225806451612
2152.0597794383175,-1580.6451612903224
2153.059807216867,-1567.741935483871
2154.059834995416,-1558.0645161290322
2155.059862773966,-1551.6129032258063
2156.0598905525153,-1558.0645161290322
2157.0599183310646,-1570.967741935484
2158.059946109614,-1583.8709677419354
2159.0599738881633,-1590.3225806451612
2160.0600016667127,-1583.8709677419354
2161.060029445262,-1574.1935483870968
2162.060057223812,-1561.2903225806451
2163.060085002361,-1554.8387096774195
2164.0601127809105,-1554.8387096774195
2165.06014055946,-1564.516129032258
2166.060168338009,-1577.4193548387098
2167.0601961165585,-1587.0967741935485
2168.060223895108,-1587.0967741935485
2169.0602516736576,-1577.4193548387098
2170.060279452207,-1564.516129032258
2171.0603072307563,-1558.0645161290322
2172.0603350093056,-1551.6129032258063
2173.060362787855,-1561.2903225806451
2174.0603905664043,-1574.1935483870968
2175.0604183449536,-1587.0967741935485
2176.0604461235034,-1590.3225806451612
2177.0604739020528,-1580.6451612903224
2178.060501680602,-1567.741935483871
2179.0605294591514,-1558.0645161290322
2180.060557237701,-1551.6129032258063
2181.06058501625,-1558.0645161290322
2182.0606127947995,-1570.967741935484
2183.0606405733492,-1583.8709677419354
2184.0606683518986,-1590.3225806451612
2185.060696130448,-1583.8709677419354
2186.0607239089973,-1574.1935483870968
2187.0607516875466,-1561.2903225806451
2188.060779466096,-1554.8387096774195
2189.0608072446453,-1554.8387096774195
2190.060835023195,-1564.516129032258
2191.0608628017444,-1577.4193548387098
2192.0608905802937,-1587.0967741935485
2193.060918358843,-1587.0967741935485
2194.0609461373924,-1577.4193548387098
2195.0609739159418,-1564.516129032258
2196.061001694491,-1554.8387096774195
2197.061029473041,-1551.6129032258063
2198.0610572515902,-1561.2903225806451
2199.0610850301396,-1574.1935483870968
2200.061112808689,-1587.0967741935485
2201.0611405872382,-1590.3225806451612
2202.0611683657876,-1580.6451612903224
2203.061196144337,-1567.741935483871
2204.0612239228867,-1558.0645161290322
2205.061251701436,-1551.6129032258063
2206.0612794799854,-1558.0645161290322
2207.0613072585347,-1570.967741935484
2208.061335037084,-1583.8709677419354
2209.0613628156334,-1590.3225806451612
2210.0613905941827,-1583.8709677419354
2211.0614183727325,-1574.1935483870968
2212.061446151282,-1561.2903225806451
2213.061473929831,-1554.8387096774195
2214.0615017083805,-1554.8387096774195
2215.06152948693,-1564.516129032258
2216.061557265479,-1577.4193548387098
2217.061585044029,-1587.0967741935485
2218.0616128225784,-1587.0967741935485
2219.0616406011277,-1577.4193548387098
2220.061668379677,-1564.516129032258
2221.0616961582264,-1554.8387096774195
2222.0617239367757,-1551.6129032258063
2223.061751715325,-1561.2903225806451
2224.061779493875,-1574.1935483870968
2225.061807272424,-1587.0967741935485
2226.0618350509735,-1590.3225806451612
2227.061862829523,-1580.6451612903224
2228.061890608072,-1567.741935483871
2229.0619183866215,-1558.0645161290322
2230.061946165171,-1551.6129032258063
2231.0619739437207,-1558.0645161290322
2232.06200172227,-1570.967741935484
2233.0620295008193,-1583.8709677419354
2234.0620572793687,-1590.3225806451612
2235.062085057918,-1583.8709677419354
2236.0621128364673,-1574.1935483870968
2237.0621406150167,-1561.2903225806451
2238.0621683935665,-1554.8387096774195
2239.062196172116,-1554.8387096774195
2240.062223950665,-1564.516129032258
2241.0622517292145,-1577.4193548387098
2242.062279507764,-1587.0967741935485
2243.062307286313,-1587.0967741935485
2244.0623350648625,-1577.4193548387098
2245.0623628434123,-1564.516129032258
2246.0623906219616,-1554.8387096774195
2247.062418400511,-1551.6129032258063
2248.0624461790603,-1561.2903225806451
2249.0624739576097,-1574.1935483870968
2250.062501736159,-1587.0967741935485
2251.0625295147083,-1590.3225806451612
2252.062557293258,-1580.6451612903224
2253.0625850718075,-1567.741935483871
2254.062612850357,-1558.0645161290322
2255.062640628906,-1551.6129032258063
2256.0626684074555,-1558.0645161290322
2257.062696186005,-1570.967741935484
2258.062723964554,-1583.8709677419354
2259.062751743104,-1590.3225806451612
2260.0627795216533,-1583.8709677419354
2261.0628073002026,-1574.1935483870968
2262.062835078752,-1561.2903225806451
2263.0628628573013,-1554.8387096774195
2264.0628906358506,-1554.8387096774195
2265.0629184144,-1564.516129032258
2266.0629461929498,-1577.4193548387098
2267.062973971499,-1587.0967741935485
2268.0630017500484,-1587.0967741935485
2269.063029528598,-1577.4193548387098
2270.063057307147,-1564.516129032258
2271.0630850856965,-1554.8387096774195
2272.063112864246,-1551.6129032258063
2273.0631406427956,-1561.2903225806451
2274.063168421345,-1574.1935483870968
2275.0631961998943,-1587.0967741935485
2276.0632239784436,-1590.3225806451612
2277.063251756993,-1580.6451612903224
2278.0632795355423,-1567.741935483871
2279.0633073140916,-1558.0645161290322
2280.0633350926414,-1551.6129032258063
2281.0633628711907,-1558.0645161290322
2282.06339064974,-1570.967741935484
2283.0634184282894,-1583.8709677419354
2284.0634462068388,-1590.3225806451612
2285.063473985388,-1583.8709677419354
2286.063501763938,-1574.1935483870968
2287.0635295424872,-1561.2903225806451
2288.0635573210366,-1554.8387096774195
2289.063585099586,-1554.8387096774195
2290.0636128781352,-1564.516129032258
2291.0636406566846,-1577.4193548387098
2292.063668435234,-1587.0967741935485
2293.0636962137837,-1587.0967741935485
2294.063723992333,-1577.4193548387098
2295.0637517708824,-1564.516129032258
2296.0637795494317,-1554.8387096774195
2297.063807327981,-1551.6129032258063
2298.0638351065304,-1561.2903225806451
2299.0638628850797,-1574.1935483870968
2300.0638906636295,-1587.0967741935485
2301.063918442179,-1590.3225806451612
2302.063946220728,-1580.6451612903224
2303.0639739992776,-1567.741935483871
2304.064001777827,-1558.0645161290322
2305.064029556376,-1551.6129032258063
2306.0640573349256,-1558.0645161290322
2307.0640851134754,-1570.967741935484
2308.0641128920247,-1583.8709677419354
2309.064140670574,-1590.3225806451612
2310.0641684491234,-1583.8709677419354
2311.0641962276727,-1574.1935483870968
2312.064224006222,-1561.2903225806451
2313.0642517847714,-1554.8387096774195
2314.064279563321,-1554.8387096774195
2315.0643073418705,-1564.516129032258
2316.06433512042,-1577.4193548387098
2317.064362898969,-1587.0967741935485
2318.0643906775185,-1587.0967741935485
2319.064418456068,-1577.4193548387098
2320.064446234617,-1564.516129032258
2321.064474013167,-1554.8387096774195
2322.0645017917163,-1551.6129032258063
2323.0645295702657,-1561.2903225806451
2324.064557348815,-1574.1935483870968
2325.0645851273644,-1587.0967741935485
2326.0646129059137,-1590.3225806451612
2327.064640684463,-1580.6451612903224
2328.064668463013,-1567.741935483871
2329.064696241562,-1558.0645161290322
2330.0647240201115,-1551.6129032258063
2331.064751798661,-1558.0645161290322
2332.06477957721,-1570.967741935484
2333.0648073557595,-1583.8709677419354
2334.064835134309,-1590.3225806451612
2335.0648629128586,-1583.8709677419354
2336.064890691408,-1570.967741935484
2337.0649184699573,-1561.2903225806451
2338.0649462485067,-1554.8387096774195
2339.064974027056,-1554.8387096774195
2340.0650018056053,-1564.516129032258
2341.0650295841547,-1577.4193548387098
2342.0650573627045,-1587.0967741935485
2343.065085141254,-1587.0967741935485
2344.065112919803,-1577.4193548387098
2345.0651406983525,-1564.516129032258
2346.065168476902,-1554.8387096774195
2347.065196255451,-1551.6129032258063
2348.065224034001,-1561.2903225806451
2349.0652518125503,-1574.1935483870968
2350.0652795910996,-1587.0967741935485
2351.065307369649,-1590.3225806451612
2352.0653351481983,-1580.6451612903224
2353.0653629267476,-1567.741935483871
2354.065390705297,-1558.0645161290322
2355.0654184838468,-1551.6129032258063
2356.065446262396,-1558.0645161290322
2357.0654740409454,-1570.967741935484
2358.065501819495,-1583.8709677419354
2359.065529598044,-1590.3225806451612
2360.0655573765935,-1583.8709677419354
2361.065585155143,-1570.967741935484
2362.0656129336926,-1561.2903225806451
2363.065640712242,-1554.8387096774195
2364.0656684907913,-1554.8387096774195
2365.0656962693406,-1564.516129032258
2366.06572404789,-1577.4193548387098
2367.0657518264393,-1587.0967741935485
2368.0657796049886,-1587.0967741935485
2369.0658073835384,-1577.4193548387098
2370.0658351620878,-1564.516129032258
2371.065862940637,-1554.8387096774195
2372.0658907191864,-1551.6129032258063
2373.0659184977358,-1561.2903225806451
2374.065946276285,-1574.1935483870968
2375.0659740548344,-1587.0967741935485
2376.0660018333842,-1590.3225806451612
2377.0660296119336,-1580.6451612903224
2378.066057390483,-1567.741935483871
2379.0660851690322,-1558.0645161290322
2380.0661129475816,-1551.6129032258063
2381.066140726131,-1558.0645161290322
2382.0661685046803,-1570.967741935484
2383.06619628323,-1583.8709677419354
2384.0662240617794,-1590.3225806451612
2385.0662518403287,-1583.8709677419354
2386.066279618878,-1570.967741935484
2387.0663073974274,-1561.2903225806451
2388.0663351759767,-1554.8387096774195
2389.066362954526,-1554.8387096774195
2390.066390733076,-1564.516129032258
2391.066418511625,-1577.4193548387098
2392.0664462901746,-1587.0967741935485
2393.066474068724,-1587.0967741935485
2394.0665018472732,-1577.4193548387098
2395.0665296258226,-1564.516129032258
2396.066557404372,-1554.8387096774195
2397.0665851829217,-1551.6129032258063
2398.066612961471,-1561.2903225806451
2399.0666407400204,-1574.1935483870968
2400.0666685185697,-1587.0967741935485
2401.066696297119,-1590.3225806451612
2402.0667240756684,-1580.6451612903224
2403.0667518542177,-1567.741935483871
2404.0667796327675,-1558.0645161290322
2405.066807411317,-1551.6129032258063
2406.066835189866,-1558.0645161290322
2407.0668629684155,-1570.967741935484
2408.066890746965,-1580.6451612903224
2409.066918525514,-1590.3225806451612
2410.0669463040635,-1583.8709677419354
2411.0669740826133,-1570.967741935484
2412.0670018611627,-1561.2903225806451
2413.067029639712,-1551.6129032258063
2414.0670574182614,-1554.8387096774195
2415.0670851968107,-1564.516129032258
2416.06711297536,-1577.4193548387098
2417.06714075391,-1587.0967741935485
2418.067168532459,-1587.0967741935485
2419.0671963110085,-1577.4193548387098
2420.067224089558,-1564.516129032258
2421.067251868107,-1554.8387096774195
2422.0672796466565,-1551.6129032258063
2423.067307425206,-1561.2903225806451
2424.0673352037556,-1574.1935483870968
2425.067362982305,-1587.0967741935485
2426.0673907608543,-1590.3225806451612
2427.0674185394037,-1580.6451612903224
2428.067446317953,-1567.741935483871
2429.0674740965023,-1558.0645161290322
2430.0675018750517,-1551.6129032258063
2431.0675296536015,-1558.0645161290322
2432.067557432151,-1567.741935483871
2433.0675852107,-1580.6451612903224
2434.0676129892495,-1590.3225806451612
2435.067640767799,-1583.8709677419354
2436.067668546348,-1570.967741935484
2437.0676963248975,-1561.2903225806451
2438.0677241034473,-1551.6129032258063
2439.0677518819966,-1554.8387096774195
2440.067779660546,-1564.516129032258
2441.0678074390953,-1577.4193548387098
2442.0678352176446,-1587.0967741935485
2443.067862996194,-1587.0967741935485
2444.0678907747433,-1577.4193548387098
2445.067918553293,-1564.516129032258
2446.0679463318424,-1554.8387096774195
2447.067974110392,-1551.6129032258063
2448.068001888941,-1561.2903225806451
2449.0680296674905,-1574.1935483870968
2450.06805744604,-1583.8709677419354
2451.068085224589,-1590.3225806451612
2452.068113003139,-1580.6451612903224
2453.0681407816883,-1567.741935483871
2454.0681685602376,-1558.0645161290322
2455.068196338787,-1551.6129032258063
2456.0682241173363,-1554.8387096774195
2457.0682518958856,-1567.741935483871
2458.068279674435,-1580.6451612903224
2459.0683074529848,-1590.3225806451612
2460.068335231534,-1583.8709677419354
2461.0683630100834,-1570.967741935484
2462.0683907886328,-1561.2903225806451
2463.068418567182,-1551.6129032258063
2464.0684463457314,-1554.8387096774195
2465.068474124281,-1564.516129032258
2466.0685019028306,-1577.4193548387098
2467.06852968138,-1587.0967741935485
2468.0685574599293,-1587.0967741935485
2469.0685852384786,-1577.4193548387098
2470.068613017028,-1564.516129032258
2471.0686407955773,-1554.8387096774195
2472.0686685741266,-1551.6129032258063
2473.0686963526764,-1561.2903225806451
2474.0687241312257,-1574.1935483870968
2475.068751909775,-1583.8709677419354
2476.0687796883244,-1590.3225806451612
2477.0688074668737,-1580.6451612903224
2478.068835245423,-1567.741935483871
2479.068863023973,-1558.0645161290322
2480.068890802522,-1551.6129032258063
2481.0689185810716,-1554.8387096774195
2482.068946359621,-1567.741935483871
2483.0689741381702,-1580.6451612903224
2484.0690019167196,-1590.3225806451612
2485.069029695269,-1583.8709677419354
2486.0690574738187,-1570.967741935484
2487.069085252368,-1561.2903225806451
2488.0691130309174,-1551.6129032258063
2489.0691408094667,-1554.8387096774195
2490.069168588016,-1564.516129032258
2491.0691963665654,-1577.4193548387098
2492.0692241451147,-1587.0967741935485
2493.0692519236645,-1587.0967741935485
2494.069279702214,-1574.1935483870968
2495.069307480763,-1564.516129032258
2496.0693352593125,-1554.8387096774195
2497.069363037862,-1551.6129032258063
2498.069390816411,-1561.2903225806451
2499.0694185949606,-1574.1935483870968
2500.0694463735103,-1583.8709677419354
2501.0694741520597,-1590.3225806451612
2502.069501930609,-1580.6451612903224
2503.0695297091584,-1567.741935483871
2504.0695574877077,-1558.0645161290322
2505.069585266257,-1551.6129032258063
2506.0696130448064,-1554.8387096774195
2507.069640823356,-1567.741935483871
2508.0696686019055,-1580.6451612903224
2509.069696380455,-1590.3225806451612
2510.069724159004,-1583.8709677419354
2511.0697519375535,-1570.967741935484
2512.069779716103,-1561.2903225806451
2513.069807494652,-1551.6129032258063
2514.069835273202,-1551.6129032258063
2515.0698630517513,-1564.516129032258
2516.0698908303007,-1577.4193548387098
2517.06991860885,-1587.0967741935485
2518.0699463873993,-1587.0967741935485
2519.0699741659487,-1574.1935483870968
2520.070001944498,-1564.516129032258
2521.070029723048,-1554.8387096774195
2522.070057501597,-1551.6129032258063
2523.0700852801465,-1561.2903225806451
2524.070113058696,-1574.1935483870968
2525.070140837245,-1583.8709677419354
2526.0701686157945,-1587.0967741935485
2527.070196394344,-1580.6451612903224
2528.0702241728936,-1567.741935483871
2529.070251951443,-1558.0645161290322
2530.0702797299923,-1551.6129032258063
2531.0703075085416,-1554.8387096774195
2532.070335287091,-1567.741935483871
2533.0703630656403,-1580.6451612903224
2534.0703908441897,-1590.3225806451612
2535.0704186227395,-1583.8709677419354
2536.070446401289,-1570.967741935484
2537.070474179838,-1561.2903225806451
2538.0705019583875,-1551.6129032258063
2539.070529736937,-1551.6129032258063
2540.070557515486,-1564.516129032258
2541.0705852940355,-1577.4193548387098
2542.0706130725853,-1587.0967741935485
2543.0706408511346,-1587.0967741935485
2544.070668629684,-1574.1935483870968
2545.0706964082333,-1564.516129032258
2546.0707241867826,-1554.8387096774195
2547.070751965332,-1551.6129032258063
2548.0707797438818,-1561.2903225806451
2549.070807522431,-1574.1935483870968
2550.0708353009804,-1583.8709677419354
2551.0708630795298,-1587.0967741935485
2552.070890858079,-1580.6451612903224
2553.0709186366284,-1567.741935483871
2554.070946415178,-1558.0645161290322
2555.0709741937276,-1551.6129032258063
2556.071001972277,-1554.8387096774195
2557.0710297508263,-1567.741935483871
2558.0710575293756,-1580.6451612903224
2559.071085307925,-1590.3225806451612
2560.0711130864743,-1583.8709677419354
2561.0711408650236,-1570.967741935484
2562.0711686435734,-1561.2903225806451
2563.0711964221227,-1551.6129032258063
2564.071224200672,-1551.6129032258063
2565.0712519792214,-1564.516129032258
2566.0712797577708,-1577.4193548387098
2567.07130753632,-1587.0967741935485
2568.0713353148694,-1587.0967741935485
2569.071363093419,-1574.1935483870968
2570.0713908719686,-1564.516129032258
2571.071418650518,-1554.8387096774195
2572.0714464290672,-1551.6129032258063
2573.0714742076166,-1558.0645161290322
2574.071501986166,-1574.1935483870968
2575.0715297647153,-1583.8709677419354
2576.071557543265,-1587.0967741935485
2577.0715853218144,-1580.6451612903224
2578.0716131003637,-1567.741935483871
2579.071640878913,-1558.0645161290322
2580.0716686574624,-1551.6129032258063
2581.0716964360117,-1554.8387096774195
2582.071724214561,-1567.741935483871
2583.071751993111,-1580.6451612903224
2584.07177977166,-1587.0967741935485
2585.0718075502095,-1583.8709677419354
2586.071835328759,-1570.967741935484
2587.071863107308,-1561.2903225806451
2588.0718908858576,-1551.6129032258063
2589.071918664407,-1551.6129032258063
2590.0719464429567,-1564.516129032258
2591.071974221506,-1577.4193548387098
2592.0720020000554,-1587.0967741935485
2593.0720297786047,-1587.0967741935485
2594.072057557154,-1574.1935483870968
2595.0720853357034,-1564.516129032258
2596.0721131142527,-1554.8387096774195
2597.0721408928025,-1551.6129032258063
2598.072168671352,-1558.0645161290322
2599.072196449901,-1574.1935483870968
2600.0722242284505,-1583.8709677419354
2601.072252007,-1587.0967741935485
2602.072279785549,-1580.6451612903224
2603.0723075640985,-1567.741935483871
2604.0723353426483,-1558.0645161290322
2605.0723631211977,-1551.6129032258063
2606.072390899747,-1554.8387096774195
2607.0724186782963,-1567.741935483871
2608.0724464568457,-1580.6451612903224
2609.072474235395,-1587.0967741935485
2610.072502013945,-1583.8709677419354
2611.072529792494,-1570.967741935484
2612.0725575710435,-1561.2903225806451
2613.072585349593,-1551.6129032258063
2614.072613128142,-1551.6129032258063
2615.0726409066915,-1564.516129032258
2616.072668685241,-1577.4193548387098
2617.0726964637906,-1587.0967741935485
2618.07272424234,-1587.0967741935485
2619.0727520208893,-1574.1935483870968
2620.0727797994386,-1564.516129032258
2621.072807577988,-1554.8387096774195
2622.0728353565373,-1551.6129032258063
2623.0728631350867,-1558.0645161290322
2624.0728909136365,-1574.1935483870968
2625.072918692186,-1583.8709677419354
2626.072946470735,-1587.0967741935485
2627.0729742492845,-1580.6451612903224
2628.073002027834,-1567.741935483871
2629.073029806383,-1558.0645161290322
2630.0730575849325,-1551.6129032258063
2631.0730853634823,-1554.8387096774195
2632.0731131420316,-1567.741935483871
2633.073140920581,-1580.6451612903224
2634.0731686991303,-1587.0967741935485
2635.0731964776796,-1583.8709677419354
2636.073224256229,-1570.967741935484
2637.0732520347783,-1561.2903225806451
2638.073279813328,-1551.6129032258063
2639.0733075918774,-1551.6129032258063
2640.073335370427,-1564.516129032258
2641.073363148976,-1577.4193548387098
2642.0733909275255,-1587.0967741935485
2643.073418706075,-1587.0967741935485
2644.073446484624,-1574.1935483870968
2645.073474263174,-1564.516129032258
2646.0735020417233,-1554.8387096774195
2647.0735298202726,-1551.6129032258063
2648.073557598822,-1558.0645161290322
2649.0735853773713,-1574.1935483870968
2650.0736131559206,-1583.8709677419354
2651.07364093447,-1587.0967741935485
2652.0736687130197,-1580.6451612903224
2653.073696491569,-1567.741935483871
2654.0737242701184,-1558.0645161290322
2655.0737520486678,-1551.6129032258063
2656.073779827217,-1554.8387096774195
2657.0738076057664,-1567.741935483871
2658.0738353843158,-1580.6451612903224
2659.0738631628656,-1587.0967741935485
2660.073890941415,-1583.8709677419354
2661.0739187199642,-1570.967741935484
2662.0739464985136,-1561.2903225806451
2663.073974277063,-1551.6129032258063
2664.0740020556123,-1551.6129032258063
2665.0740298341616,-1564.516129032258
2666.0740576127114,-1577.4193548387098
2667.0740853912607,-1587.0967741935485
2668.07411316981,-1587.0967741935485
2669.0741409483594,-1574.1935483870968
2670.0741687269087,-1564.516129032258
2671.074196505458,-1554.8387096774195
2672.0742242840074,-1551.6129032258063
2673.074252062557,-1558.0645161290322
2674.0742798411065,-1574.1935483870968
2675.074307619656,-1583.8709677419354
2676.074335398205,-1587.0967741935485
2677.0743631767546,-1580.6451612903224
2678.074390955304,-1567.741935483871
2679.0744187338537,-1558.0645161290322
2680.074446512403,-1551.6129032258063
2681.0744742909524,-1554.8387096774195
2682.0745020695017,-1567.741935483871
2683.074529848051,-1580.6451612903224
2684.0745576266004,-1587.0967741935485
2685.0745854051497,-1583.8709677419354
2686.0746131836995,-1570.967741935484
2687.074640962249,-1561.2903225806451
2688.074668740798,-1551.6129032258063
2689.0746965193475,-1551.6129032258063
2690.074724297897,-1564.516129032258
2691.074752076446,-1577.4193548387098
2692.0747798549955,-1587.0967741935485
2693.0748076335453,-1587.0967741935485
2694.0748354120947,-1574.1935483870968
2695.074863190644,-1564.516129032258
2696.0748909691933,-1554.8387096774195
2697.0749187477427,-1551.6129032258063
2698.074946526292,-1558.0645161290322
2699.0749743048414,-1574.1935483870968
2700.075002083391,-1583.8709677419354
2701.0750298619405,-1587.0967741935485
2702.07505764049,-1580.6451612903224
2703.075085419039,-1567.741935483871
2704.0751131975885,-1558.0645161290322
2705.075140976138,-1551.6129032258063
2706.075168754687,-1554.8387096774195
2707.075196533237,-1567.741935483871
2708.0752243117863,-1580.6451612903224
2709.0752520903357,-1587.0967741935485
2710.075279868885,-1583.8709677419354
2711.0753076474343,-1570.967741935484
2712.0753354259837,-1561.2903225806451
2713.075363204533,-1551.6129032258063
2714.075390983083,-1551.6129032258063
2715.075418761632,-1564.516129032258
2716.0754465401815,-1577.4193548387098
2717.075474318731,-1587.0967741935485
2718.07550209728,-1587.0967741935485
2719.0755298758295,-1574.1935483870968
2720.075557654379,-1564.516129032258
2721.0755854329286,-1554.8387096774195
2722.075613211478,-1551.6129032258063
2723.0756409900273,-1558.0645161290322
2724.0756687685766,-1574.1935483870968
2725.075696547126,-1583.8709677419354
2726.0757243256753,-1587.0967741935485
2727.0757521042246,-1580.6451612903224
2728.0757798827744,-1567.741935483871
2729.075807661324,-1558.0645161290322
2730.075835439873,-1551.6129032258063
2731.0758632184225,-1554.8387096774195
2732.075890996972,-1567.741935483871
2733.075918775521,-1580.6451612903224
2734.0759465540705,-1587.0967741935485
2735.0759743326203,-1583.8709677419354
2736.0760021111696,-1570.967741935484
2737.076029889719,-1558.0645161290322
2738.0760576682683,-1551.6129032258063
2739.0760854468176,-1551.6129032258063
2740.076113225367,-1564.516129032258
2741.0761410039163,-1577.4193548387098
2742.076168782466,-1587.0967741935485
2743.0761965610154,-1587.0967741935485
2744.0762243395648,-1574.1935483870968
2745.076252118114,-1564.516129032258
2746.0762798966634,-1554.8387096774195
2747.076307675213,-1551.6129032258063
2748.0763354537626,-1558.0645161290322
2749.076363232312,-1574.1935483870968
2750.0763910108612,-1583.8709677419354
2751.0764187894106,-1587.0967741935485
2752.07644656796,-1580.6451612903224
2753.0764743465093,-1567.741935483871
2754.0765021250586,-1558.0645161290322
2755.0765299036084,-1551.6129032258063
2756.0765576821577,-1554.8387096774195
2757.076585460707,-1567.741935483871
2758.0766132392564,-1580.6451612903224
2759.0766410178057,-1587.0967741935485
2760.076668796355,-1583.8709677419354
2761.0766965749044,-1570.967741935484
2762.076724353454,-1558.0645161290322
2763.0767521320035,-1551.6129032258063
2764.076779910553,-1551.6129032258063
2765.076807689102,-1564.516129032258
2766.0768354676516,-1577.4193548387098
2767.076863246201,-1587.0967741935485
2768.0768910247502,-1587.0967741935485
2769.0769188033,-1574.1935483870968
2770.0769465818494,-1564.516129032258
2771.0769743603987,-1554.8387096774195
2772.077002138948,-1551.6129032258063
2773.0770299174974,-1558.0645161290322
2774.0770576960467,-1574.1935483870968
2775.077085474596,-1583.8709677419354
2776.077113253146,-1587.0967741935485
2777.077141031695,-1580.6451612903224
2778.0771688102445,-1567.741935483871
2779.077196588794,-1558.0645161290322
2780.077224367343,-1551.6129032258063
2781.0772521458925,-1554.8387096774195
2782.077279924442,-1567.741935483871
2783.0773077029917,-1580.6451612903224
2784.077335481541,-1587.0967741935485
2785.0773632600904,-1583.8709677419354
2786.0773910386397,-1570.967741935484
2787.077418817189,-1558.0645161290322
2788.0774465957384,-1551.6129032258063
2789.0774743742877,-1551.6129032258063
2790.0775021528375,-1564.516129032258
2791.077529931387,-1577.4193548387098
2792.077557709936,-1587.0967741935485
2793.0775854884855,-1587.0967741935485
2794.077613267035,-1574.1935483870968
2795.077641045584,-1561.2903225806451
2796.0776688241335,-1554.8387096774195
2797.0776966026833,-1551.6129032258063
2798.0777243812327,-1558.0645161290322
2799.077752159782,-1574.1935483870968
2800.0777799383313,-1583.8709677419354
2801.0778077168807,-1587.0967741935485
2802.07783549543,-1577.4193548387098
2803.0778632739793,-1567.741935483871
2804.077891052529,-1554.8387096774195
2805.0779188310785,-1548.3870967741934
2806.077946609628,-1554.8387096774195
2807.077974388177,-1567.741935483871
2808.0780021667265,-1580.6451612903224
2809.078029945276,-1587.0967741935485
2810.0780577238256,-1583.8709677419354
2811.078085502375,-1570.967741935484
2812.0781132809243,-1558.0645161290322
2813.0781410594736,-1551.6129032258063
2814.078168838023,-1551.6129032258063
2815.0781966165723,-1564.516129032258
2816.0782243951217,-1577.4193548387098
2817.0782521736714,-1587.0967741935485
2818.078279952221,-1587.0967741935485
2819.07830773077,-1574.1935483870968
2820.0783355093195,-1561.2903225806451
2821.078363287869,-1554.8387096774195
2822.078391066418,-1551.6129032258063
2823.0784188449675,-1558.0645161290322
2824.0784466235173,-1574.1935483870968
2825.0784744020666,-1583.8709677419354
2826.078502180616,-1587.0967741935485
2827.0785299591653,-1577.4193548387098
2828.0785577377146,-1567.741935483871
2829.078585516264,-1554.8387096774195
2830.0786132948133,-1548.3870967741934
2831.078641073363,-1554.8387096774195
2832.0786688519124,-1567.741935483871
2833.0786966304618,-1580.6451612903224
2834.078724409011,-1587.0967741935485
2835.0787521875604,-1583.8709677419354
2836.07877996611,-1570.967741935484
2837.078807744659,-1558.0645161290322
2838.078835523209,-1551.6129032258063
2839.0788633017582,-1551.6129032258063
2840.0788910803076,-1564.516129032258
2841.078918858857,-1577.4193548387098
2842.0789466374063,-1587.0967741935485
2843.0789744159556,-1587.0967741935485
2844.079002194505,-1574.1935483870968
2845.0790299730547,-1561.2903225806451
2846.079057751604,-1554.8387096774195
2847.0790855301534,-1551.6129032258063
2848.0791133087027,-1558.0645161290322
2849.079141087252,-1574.1935483870968
2850.0791688658014,-1583.8709677419354
2851.0791966443508,-1587.0967741935485
2852.0792244229006,-1577.4193548387098
2853.07925220145,-1567.741935483871
2854.0792799799992,-1554.8387096774195
2855.0793077585486,-1548.3870967741934
2856.079335537098,-1554.8387096774195
2857.0793633156472,-1567.741935483871
2858.0793910941966,-1580.6451612903224
2859.0794188727464,-1587.0967741935485
2860.0794466512957,-1583.8709677419354
2861.079474429845,-1570.967741935484
2862.0795022083944,-1558.0645161290322
2863.0795299869437,-1551.6129032258063
2864.079557765493,-1551.6129032258063
2865.0795855440424,-1564.516129032258
2866.079613322592,-1577.4193548387098
2867.0796411011415,-1587.0967741935485
2868.079668879691,-1587.0967741935485
2869.07969665824,-1574.1935483870968
2870.0797244367895,-1561.2903225806451
2871.079752215339,-1554.8387096774195
2872.079779993888,-1548.3870967741934
2873.079807772438,-1558.0645161290322
2874.0798355509874,-1574.1935483870968
2875.0798633295367,-1583.8709677419354
2876.079891108086,-1587.0967741935485
2877.0799188866354,-1577.4193548387098
2878.0799466651847,-1567.741935483871
2879.0799744437345,-1554.8387096774195
2880.080002222284,-1548.3870967741934
2881.080030000833,-1554.8387096774195
2882.0800577793825,-1567.741935483871
2883.080085557932,-1580.6451612903224
2884.080113336481,-1587.0967741935485
2885.0801411150305,-1583.8709677419354
2886.0801688935803,-1570.967741935484
2887.0801966721297,-1558.0645161290322
2888.080224450679,-1551.6129032258063
2889.0802522292283,-1551.6129032258063
2890.0802800077777,-1564.516129032258
2891.080307786327,-1577.4193548387098
2892.0803355648763,-1587.0967741935485
2893.080363343426,-1587.0967741935485
2894.0803911219755,-1574.1935483870968
2895.080418900525,-1561.2903225806451
2896.080446679074,-1554.8387096774195
2897.0804744576235,-1551.6129032258063
2898.080502236173,-1558.0645161290322
2899.080530014722,-1574.1935483870968
2900.080557793272,-1583.8709677419354
2901.0805855718213,-1587.0967741935485
2902.0806133503706,-1577.4193548387098
2903.08064112892,-1567.741935483871
2904.0806689074693,-1554.8387096774195
2905.0806966860187,-1548.3870967741934
2906.080724464568,-1554.8387096774195
2907.080752243118,-1567.741935483871
2908.080780021667,-1580.6451612903224
2909.0808078002165,-1587.0967741935485
2910.080835578766,-1583.8709677419354
2911.080863357315,-1570.967741935484
2912.0808911358645,-1558.0645161290322
2913.080918914414,-1551.6129032258063
2914.0809466929636,-1551.6129032258063
2915.080974471513,-1564.516129032258
2916.0810022500623,-1577.4193548387098
2917.0810300286116,-1587.0967741935485
2918.081057807161,-1587.0967741935485
2919.0810855857103,-1574.1935483870968
2920.0811133642596,-1561.2903225806451
2921.0811411428094,-1554.8387096774195
2922.0811689213588,-1551.6129032258063
2923.081196699908,-1558.0645161290322
2924.0812244784574,-1574.1935483870968
2925.081252257007,-1583.8709677419354
2926.081280035556,-1587.0967741935485
2927.0813078141055,-1577.4193548387098
2928.0813355926553,-1567.741935483871
2929.0813633712046,-1554.8387096774195
2930.081391149754,-1548.3870967741934
2931.0814189283033,-1554.8387096774195
2932.0814467068526,-1567.741935483871
2933.081474485402,-1580.6451612903224
2934.0815022639513,-1587.0967741935485
2935.081530042501,-1583.8709677419354
2936.0815578210504,-1570.967741935484
2937.0815855995997,-1558.0645161290322
2938.081613378149,-1551.6129032258063
2939.0816411566984,-1551.6129032258063
2940.0816689352478,-1564.516129032258
2941.0816967137976,-1577.4193548387098
2942.081724492347,-1587.0967741935485
2943.0817522708962,-1587.0967741935485
2944.0817800494456,-1574.1935483870968
2945.081807827995,-1561.2903225806451
2946.0818356065442,-1554.8387096774195
2947.0818633850936,-1551.6129032258063
2948.0818911636434,-1558.0645161290322
2949.0819189421927,-1574.1935483870968
2950.081946720742,-1583.8709677419354
2951.0819744992914,-1587.0967741935485
2952.0820022778407,-1577.4193548387098
2953.08203005639,-1567.741935483871
2954.0820578349394,-1554.8387096774195
2955.082085613489,-1548.3870967741934
2956.0821133920385,-1554.8387096774195
2957.082141170588,-1567.741935483871
2958.082168949137,-1580.6451612903224
2959.0821967276866,-1587.0967741935485
2960.082224506236,-1583.8709677419354
2961.082252284785,-1570.967741935484
2962.082280063335,-1558.0645161290322
2963.0823078418844,-1551.6129032258063
2964.0823356204337,-1551.6129032258063
2965.082363398983,-1564.516129032258
2966.0823911775324,-1577.4193548387098
2967.0824189560817,-1587.0967741935485
2968.082446734631,-1587.0967741935485
2969.082474513181,-1574.1935483870968
2970.08250229173,-1561.2903225806451
2971.0825300702795,-1554.8387096774195
2972.082557848829,-1551.6129032258063
2973.082585627378,-1558.0645161290322
2974.0826134059275,-1574.1935483870968
2975.082641184477,-1583.8709677419354
2976.0826689630267,-1587.0967741935485
2977.082696741576,-1577.4193548387098
2978.0827245201253,-1567.741935483871
2979.0827522986747,-1554.8387096774195
2980.082780077224,-1548.3870967741934
2981.0828078557734,-1554.8387096774195
2982.0828356343227,-1567.741935483871
2983.0828634128725,-1580.6451612903224
2984.082891191422,-1587.0967741935485
2985.082918969971,-1583.8709677419354
2986.0829467485205,-1570.967741935484
2987.08297452707,-1558.0645161290322
2988.083002305619,-1551.6129032258063
2989.0830300841685,-1551.6129032258063
2990.0830578627183,-1564.516129032258
2991.0830856412676,-1577.4193548387098
2992.083113419817,-1587.0967741935485
2993.0831411983663,-1587.0967741935485
2994.0831689769157,-1574.1935483870968
2995.083196755465,-1561.2903225806451
2996.0832245340143,-1554.8387096774195
2997.083252312564,-1551.6129032258063
2998.0832800911135,-1558.0645161290322
2999.083307869663,-1574.1935483870968
3000.083335648212,-1583.8709677419354
3001.0833634267615,-1587.0967741935485
3002.083391205311,-1577.4193548387098
3003.08341898386,-1567.741935483871
3004.08344676241,-1554.8387096774195
3005.0834745409593,-1548.3870967741934
3006.0835023195086,-1554.8387096774195
3007.083530098058,-1567.741935483871
3008.0835578766073,-1580.6451612903224
3009.0835856551566,-1587.0967741935485
3010.0836134337064,-1583.8709677419354
3011.0836412122558,-1570.967741935484
3012.083668990805,-1558.0645161290322
3013.0836967693544,-1551.6129032258063
3014.083724547904,-1551.6129032258063
3015.083752326453,-1564.516129032258
3016.0837801050025,-1577.4193548387098
3017.0838078835523,-1587.0967741935485
3018.0838356621016,-1587.0967741935485
3019.083863440651,-1574.1935483870968
3020.0838912192003,-1561.2903225806451
3021.0839189977496,-1554.8387096774195
3022.083946776299,-1548.3870967741934
3023.0839745548483,-1558.0645161290322
3024.084002333398,-1574.1935483870968
3025.0840301119474,-1583.8709677419354
3026.0840578904968,-1587.0967741935485
3027.084085669046,-1577.4193548387098
3028.0841134475954,-1564.516129032258
3029.0841412261448,-1554.8387096774195
3030.084169004694,-1548.3870967741934
3031.084196783244,-1554.8387096774195
3032.0842245617932,-1567.741935483871
3033.0842523403426,-1580.6451612903224
3034.084280118892,-1587.0967741935485
3035.0843078974412,-1583.8709677419354
3036.0843356759906,-1570.967741935484
3037.08436345454,-1558.0645161290322
3038.0843912330897,-1551.6129032258063
3039.084419011639,-1551.6129032258063
3040.0844467901884,-1564.516129032258
3041.0844745687377,-1577.4193548387098
3042.084502347287,-1587.0967741935485
3043.0845301258364,-1587.0967741935485
3044.0845579043857,-1574.1935483870968
3045.0845856829355,-1561.2903225806451
3046.084613461485,-1554.8387096774195
3047.084641240034,-1551.6129032258063
3048.0846690185836,-1558.0645161290322
3049.084696797133,-1574.1935483870968
3050.0847245756822,-1583.8709677419354
3051.0847523542316,-1587.0967741935485
3052.0847801327814,-1577.4193548387098
