0.000000000000000000e+00 0.000000000000000000e+00 0.000000000000000000e+00 0.000000000000000000e+00 0.000000000000000000e+00 1.577235047821710366e-16
3.110917254086213786e-19 1.620181940218729151e-04 3.251717580767963991e-04 4.817915777735164444e-04 6.200776882964182529e-04 7.233663421203767596e-04
6.221834508172427572e-19 3.240363880437458302e-04 6.503435161535927982e-04 9.635831555470328888e-04 1.240155376592836506e-03 1.446732684240596744e-03
9.332751762258641358e-19 4.860545820656187723e-04 9.755152742303891972e-04 1.445374733320549387e-03 1.860233064889254759e-03 2.170099026360817161e-03
1.244366901634485514e-18 6.480727760874916603e-04 1.300687032307185596e-03 1.927166311094065778e-03 2.480310753185673012e-03 2.893465368481036928e-03
1.555458627043106893e-18 8.100909701093645483e-04 1.625858790383981995e-03 2.408957888867582168e-03 3.100388441482091265e-03 3.616831710601256262e-03
1.866550352451728272e-18 9.721091641312375447e-04 1.951030548460778394e-03 2.890749466641098775e-03 3.720466129778509518e-03 4.340198052721479065e-03
2.177642077860349650e-18 1.134127358153110433e-03 2.276202306537574577e-03 3.372541044414614948e-03 4.340543818074927770e-03 5.063564394841697965e-03
2.488733803268971029e-18 1.296145552174983321e-03 2.601374064614371193e-03 3.854332622188131555e-03 4.960621506371346023e-03 5.786930736961918599e-03
2.799825528677592407e-18 1.458163746196856209e-03 2.926545822691167809e-03 4.336124199961648162e-03 5.580699194667764276e-03 6.510297079082139234e-03
3.110917254086213786e-18 1.620181940218729097e-03 3.251717580767963991e-03 4.817915777735164336e-03 6.200776882964182529e-03 7.233663421202359868e-03
3.422008979494835165e-18 1.782200134240601985e-03 3.576889338844760173e-03 5.299707355508680509e-03 6.820854571260600782e-03 7.957029763322579635e-03
3.733100704903456543e-18 1.944218328262475089e-03 3.902061096921556789e-03 5.781498933282197550e-03 7.440932259557019035e-03 8.680396105442800270e-03
4.044192430312077922e-18 2.106236522284347761e-03 4.227232854998353405e-03 6.263290511055713723e-03 8.061009947853437288e-03 9.403762447563019169e-03
4.355284155720699300e-18 2.268254716306220865e-03 4.552404613075149153e-03 6.745082088829229897e-03 8.681087636149855541e-03 1.012712878968323980e-02
4.666375881129320679e-18 2.430272910328093536e-03 4.877576371151945769e-03 7.226873666602746937e-03 9.301165324446273794e-03 1.085049513180345697e-02
0.000000000000000000e+00 0.000000000000000000e+00 0.000000000000000000e+00 0.000000000000000000e+00 0.000000000000000000e+00 1.586567799583968923e-16
3.110917254086213786e-19 1.620181940218729151e-04 3.251717580767963991e-04 4.817915777735164444e-04 6.200776882964182529e-04 7.233663421203777354e-04
6.221834508172427572e-19 3.240363880437458302e-04 6.503435161535927982e-04 9.635831555470328888e-04 1.240155376592836506e-03 1.446732684240597177e-03
9.332751762258641358e-19 4.860545820656187723e-04 9.755152742303891972e-04 1.445374733320549387e-03 1.860233064889254759e-03 2.170099026360816728e-03
1.244366901634485514e-18 6.480727760874916603e-04 1.300687032307185596e-03 1.927166311094065778e-03 2.480310753185673012e-03 2.893465368481036495e-03
1.555458627043106893e-18 8.100909701093645483e-04 1.625858790383981995e-03 2.408957888867582168e-03 3.100388441482091265e-03 3.616831710601256696e-03
1.866550352451728272e-18 9.721091641312375447e-04 1.951030548460778394e-03 2.890749466641098775e-03 3.720466129778509518e-03 4.340198052721477330e-03
2.177642077860349650e-18 1.134127358153110433e-03 2.276202306537574577e-03 3.372541044414614948e-03 4.340543818074927770e-03 5.063564394841697097e-03
2.488733803268971029e-18 1.296145552174983321e-03 2.601374064614371193e-03 3.854332622188131555e-03 4.960621506371346023e-03 5.786930736961917732e-03
2.799825528677592407e-18 1.458163746196856209e-03 2.926545822691167809e-03 4.336124199961648162e-03 5.580699194667764276e-03 6.510297079082138366e-03
3.110917254086213786e-18 1.620181940218729097e-03 3.251717580767963991e-03 4.817915777735164336e-03 6.200776882964182529e-03 7.233663421202359868e-03
3.422008979494835165e-18 1.782200134240601985e-03 3.576889338844760173e-03 5.299707355508680509e-03 6.820854571260600782e-03 7.957029763322581370e-03
3.733100704903456543e-18 1.944218328262475089e-03 3.902061096921556789e-03 5.781498933282197550e-03 7.440932259557019035e-03 8.680396105442800270e-03
4.044192430312077922e-18 2.106236522284347761e-03 4.227232854998353405e-03 6.263290511055713723e-03 8.061009947853437288e-03 9.403762447563019169e-03
4.355284155720699300e-18 2.268254716306220865e-03 4.552404613075149153e-03 6.745082088829229897e-03 8.681087636149855541e-03 1.012712878968323807e-02
4.666375881129320679e-18 2.430272910328093536e-03 4.877576371151945769e-03 7.226873666602746937e-03 9.301165324446273794e-03 1.085049513180345697e-02
0.000000000000000000e+00 0.000000000000000000e+00 0.000000000000000000e+00 0.000000000000000000e+00 0.000000000000000000e+00 1.577235047821710366e-16
3.110917254086213786e-19 1.620181940218729151e-04 3.251717580767963991e-04 4.817915777735164444e-04 6.200776882964182529e-04 7.233663421203782775e-04
6.221834508172427572e-19 3.240363880437458302e-04 6.503435161535927982e-04 9.635831555470328888e-04 1.240155376592836506e-03 1.446732684240596527e-03
9.332751762258641358e-19 4.860545820656187723e-04 9.755152742303891972e-04 1.445374733320549387e-03 1.860233064889254759e-03 2.170099026360817595e-03
1.244366901634485514e-18 6.480727760874916603e-04 1.300687032307185596e-03 1.927166311094065778e-03 2.480310753185673012e-03 2.893465368481036928e-03
1.555458627043106893e-18 8.100909701093645483e-04 1.625858790383981995e-03 2.408957888867582168e-03 3.100388441482091265e-03 3.616831710601256696e-03
1.866550352451728272e-18 9.721091641312375447e-04 1.951030548460778394e-03 2.890749466641098775e-03 3.720466129778509518e-03 4.340198052721478197e-03
2.177642077860349650e-18 1.134127358153110433e-03 2.276202306537574577e-03 3.372541044414614948e-03 4.340543818074927770e-03 5.063564394841698832e-03
2.488733803268971029e-18 1.296145552174983321e-03 2.601374064614371193e-03 3.854332622188131555e-03 4.960621506371346023e-03 5.786930736961917732e-03
2.799825528677592407e-18 1.458163746196856209e-03 2.926545822691167809e-03 4.336124199961648162e-03 5.580699194667764276e-03 6.510297079082138366e-03
3.110917254086213786e-18 1.620181940218729097e-03 3.251717580767963991e-03 4.817915777735164336e-03 6.200776882964182529e-03 7.233663421202358133e-03
3.422008979494835165e-18 1.782200134240601985e-03 3.576889338844760173e-03 5.299707355508680509e-03 6.820854571260600782e-03 7.957029763322579635e-03
3.733100704903456543e-18 1.944218328262475089e-03 3.902061096921556789e-03 5.781498933282197550e-03 7.440932259557019035e-03 8.680396105442800270e-03
4.044192430312077922e-18 2.106236522284347761e-03 4.227232854998353405e-03 6.263290511055713723e-03 8.061009947853437288e-03 9.403762447563019169e-03
4.355284155720699300e-18 2.268254716306220865e-03 4.552404613075149153e-03 6.745082088829229897e-03 8.681087636149855541e-03 1.012712878968323980e-02
4.666375881129320679e-18 2.430272910328093536e-03 4.877576371151945769e-03 7.226873666602746937e-03 9.301165324446273794e-03 1.085049513180345870e-02
0.000000000000000000e+00 0.000000000000000000e+00 0.000000000000000000e+00 0.000000000000000000e+00 0.000000000000000000e+00 1.586567799583968923e-16
3.110917254086213786e-19 1.620181940218729151e-04 3.251717580767963991e-04 4.817915777735164444e-04 6.200776882964182529e-04 7.233663421203789280e-04
6.221834508172427572e-19 3.240363880437458302e-04 6.503435161535927982e-04 9.635831555470328888e-04 1.240155376592836506e-03 1.446732684240598045e-03
9.332751762258641358e-19 4.860545820656187723e-04 9.755152742303891972e-04 1.445374733320549387e-03 1.860233064889254759e-03 2.170099026360818029e-03
1.244366901634485514e-18 6.480727760874916603e-04 1.300687032307185596e-03 1.927166311094065778e-03 2.480310753185673012e-03 2.893465368481036495e-03
1.555458627043106893e-18 8.100909701093645483e-04 1.625858790383981995e-03 2.408957888867582168e-03 3.100388441482091265e-03 3.616831710601256696e-03
1.866550352451728272e-18 9.721091641312375447e-04 1.951030548460778394e-03 2.890749466641098775e-03 3.720466129778509518e-03 4.340198052721477330e-03
2.177642077860349650e-18 1.134127358153110433e-03 2.276202306537574577e-03 3.372541044414614948e-03 4.340543818074927770e-03 5.063564394841697097e-03
2.488733803268971029e-18 1.296145552174983321e-03 2.601374064614371193e-03 3.854332622188131555e-03 4.960621506371346023e-03 5.786930736961917732e-03
2.799825528677592407e-18 1.458163746196856209e-03 2.926545822691167809e-03 4.336124199961648162e-03 5.580699194667764276e-03 6.510297079082137499e-03
3.110917254086213786e-18 1.620181940218729097e-03 3.251717580767963991e-03 4.817915777735164336e-03 6.200776882964182529e-03 7.233663421202358133e-03
3.422008979494835165e-18 1.782200134240601985e-03 3.576889338844760173e-03 5.299707355508680509e-03 6.820854571260600782e-03 7.957029763322577900e-03
3.733100704903456543e-18 1.944218328262475089e-03 3.902061096921556789e-03 5.781498933282197550e-03 7.440932259557019035e-03 8.680396105442800270e-03
4.044192430312077922e-18 2.106236522284347761e-03 4.227232854998353405e-03 6.263290511055713723e-03 8.061009947853437288e-03 9.403762447563019169e-03
4.355284155720699300e-18 2.268254716306220865e-03 4.552404613075149153e-03 6.745082088829229897e-03 8.681087636149855541e-03 1.012712878968323980e-02
4.666375881129320679e-18 2.430272910328093536e-03 4.877576371151945769e-03 7.226873666602746937e-03 9.301165324446273794e-03 1.085049513180345870e-02
0.000000000000000000e+00 0.000000000000000000e+00 0.000000000000000000e+00 0.000000000000000000e+00 0.000000000000000000e+00 1.589678716838055191e-16
3.110917254086213786e-19 1.620181940218729151e-04 3.251717580767963991e-04 4.817915777735164444e-04 6.200776882964182529e-04 7.233663421203789280e-04
6.221834508172427572e-19 3.240363880437458302e-04 6.503435161535927982e-04 9.635831555470328888e-04 1.240155376592836506e-03 1.446732684240598912e-03
9.332751762258641358e-19 4.860545820656187723e-04 9.755152742303891972e-04 1.445374733320549387e-03 1.860233064889254759e-03 2.170099026360818029e-03
1.244366901634485514e-18 6.480727760874916603e-04 1.300687032307185596e-03 1.927166311094065778e-03 2.480310753185673012e-03 2.893465368481036495e-03
1.555458627043106893e-18 8.100909701093645483e-04 1.625858790383981995e-03 2.408957888867582168e-03 3.100388441482091265e-03 3.616831710601256696e-03
1.866550352451728272e-18 9.721091641312375447e-04 1.951030548460778394e-03 2.890749466641098775e-03 3.720466129778509518e-03 4.340198052721477330e-03
2.177642077860349650e-18 1.134127358153110433e-03 2.276202306537574577e-03 3.372541044414614948e-03 4.340543818074927770e-03 5.063564394841697965e-03
2.488733803268971029e-18 1.296145552174983321e-03 2.601374064614371193e-03 3.854332622188131555e-03 4.960621506371346023e-03 5.786930736961916864e-03
2.799825528677592407e-18 1.458163746196856209e-03 2.926545822691167809e-03 4.336124199961648162e-03 5.580699194667764276e-03 6.510297079082138366e-03
3.110917254086213786e-18 1.620181940218729097e-03 3.251717580767963991e-03 4.817915777735164336e-03 6.200776882964182529e-03 7.233663421202358133e-03
3.422008979494835165e-18 1.782200134240601985e-03 3.576889338844760173e-03 5.299707355508680509e-03 6.820854571260600782e-03 7.957029763322577900e-03
3.733100704903456543e-18 1.944218328262475089e-03 3.902061096921556789e-03 5.781498933282197550e-03 7.440932259557019035e-03 8.680396105442800270e-03
4.044192430312077922e-18 2.106236522284347761e-03 4.227232854998353405e-03 6.263290511055713723e-03 8.061009947853437288e-03 9.403762447563019169e-03
4.355284155720699300e-18 2.268254716306220865e-03 4.552404613075149153e-03 6.745082088829229897e-03 8.681087636149855541e-03 1.012712878968323980e-02
4.666375881129320679e-18 2.430272910328093536e-03 4.877576371151945769e-03 7.226873666602746937e-03 9.301165324446273794e-03 1.085049513180345870e-02
0.000000000000000000e+00 0.000000000000000000e+00 0.000000000000000000e+00 0.000000000000000000e+00 0.000000000000000000e+00 1.592789634092141458e-16
3.110917254086213786e-19 1.620181940218729151e-04 3.251717580767963991e-04 4.817915777735164444e-04 6.200776882964182529e-04 7.233663421203782775e-04
6.221834508172427572e-19 3.240363880437458302e-04 6.503435161535927982e-04 9.635831555470328888e-04 1.240155376592836506e-03 1.446732684240598045e-03
9.332751762258641358e-19 4.860545820656187723e-04 9.755152742303891972e-04 1.445374733320549387e-03 1.860233064889254759e-03 2.170099026360818896e-03
1.244366901634485514e-18 6.480727760874916603e-04 1.300687032307185596e-03 1.927166311094065778e-03 2.480310753185673012e-03 2.893465368481037796e-03
1.555458627043106893e-18 8.100909701093645483e-04 1.625858790383981995e-03 2.408957888867582168e-03 3.100388441482091265e-03 3.616831710601256696e-03
1.866550352451728272e-18 9.721091641312375447e-04 1.951030548460778394e-03 2.890749466641098775e-03 3.720466129778509518e-03 4.340198052721477330e-03
2.177642077860349650e-18 1.134127358153110433e-03 2.276202306537574577e-03 3.372541044414614948e-03 4.340543818074927770e-03 5.063564394841697097e-03
2.488733803268971029e-18 1.296145552174983321e-03 2.601374064614371193e-03 3.854332622188131555e-03 4.960621506371346023e-03 5.786930736961916864e-03
2.799825528677592407e-18 1.458163746196856209e-03 2.926545822691167809e-03 4.336124199961648162e-03 5.580699194667764276e-03 6.510297079082137499e-03
3.110917254086213786e-18 1.620181940218729097e-03 3.251717580767963991e-03 4.817915777735164336e-03 6.200776882964182529e-03 7.233663421202357266e-03
3.422008979494835165e-18 1.782200134240601985e-03 3.576889338844760173e-03 5.299707355508680509e-03 6.820854571260600782e-03 7.957029763322579635e-03
3.733100704903456543e-18 1.944218328262475089e-03 3.902061096921556789e-03 5.781498933282197550e-03 7.440932259557019035e-03 8.680396105442800270e-03
4.044192430312077922e-18 2.106236522284347761e-03 4.227232854998353405e-03 6.263290511055713723e-03 8.061009947853437288e-03 9.403762447563019169e-03
4.355284155720699300e-18 2.268254716306220865e-03 4.552404613075149153e-03 6.745082088829229897e-03 8.681087636149855541e-03 1.012712878968323980e-02
4.666375881129320679e-18 2.430272910328093536e-03 4.877576371151945769e-03 7.226873666602746937e-03 9.301165324446273794e-03 1.085049513180345870e-02
0.000000000000000000e+00 0.000000000000000000e+00 0.000000000000000000e+00 0.000000000000000000e+00 0.000000000000000000e+00 1.592789634092141458e-16
3.110917254086213786e-19 1.620181940218729151e-04 3.251717580767963991e-04 4.817915777735164444e-04 6.200776882964182529e-04 7.233663421203792533e-04
6.221834508172427572e-19 3.240363880437458302e-04 6.503435161535927982e-04 9.635831555470328888e-04 1.240155376592836506e-03 1.446732684240598912e-03
9.332751762258641358e-19 4.860545820656187723e-04 9.755152742303891972e-04 1.445374733320549387e-03 1.860233064889254759e-03 2.170099026360818462e-03
1.244366901634485514e-18 6.480727760874916603e-04 1.300687032307185596e-03 1.927166311094065778e-03 2.480310753185673012e-03 2.893465368481037796e-03
1.555458627043106893e-18 8.100909701093645483e-04 1.625858790383981995e-03 2.408957888867582168e-03 3.100388441482091265e-03 3.616831710601256696e-03
1.866550352451728272e-18 9.721091641312375447e-04 1.951030548460778394e-03 2.890749466641098775e-03 3.720466129778509518e-03 4.340198052721477330e-03
2.177642077860349650e-18 1.134127358153110433e-03 2.276202306537574577e-03 3.372541044414614948e-03 4.340543818074927770e-03 5.063564394841697097e-03
2.488733803268971029e-18 1.296145552174983321e-03 2.601374064614371193e-03 3.854332622188131555e-03 4.960621506371346023e-03 5.786930736961916864e-03
2.799825528677592407e-18 1.458163746196856209e-03 2.926545822691167809e-03 4.336124199961648162e-03 5.580699194667764276e-03 6.510297079082136631e-03
3.110917254086213786e-18 1.620181940218729097e-03 3.251717580767963991e-03 4.817915777735164336e-03 6.200776882964182529e-03 7.233663421202357266e-03
3.422008979494835165e-18 1.782200134240601985e-03 3.576889338844760173e-03 5.299707355508680509e-03 6.820854571260600782e-03 7.957029763322577900e-03
3.733100704903456543e-18 1.944218328262475089e-03 3.902061096921556789e-03 5.781498933282197550e-03 7.440932259557019035e-03 8.680396105442798535e-03
4.044192430312077922e-18 2.106236522284347761e-03 4.227232854998353405e-03 6.263290511055713723e-03 8.061009947853437288e-03 9.403762447563019169e-03
4.355284155720699300e-18 2.268254716306220865e-03 4.552404613075149153e-03 6.745082088829229897e-03 8.681087636149855541e-03 1.012712878968323980e-02
4.666375881129320679e-18 2.430272910328093536e-03 4.877576371151945769e-03 7.226873666602746937e-03 9.301165324446273794e-03 1.085049513180345870e-02
0.000000000000000000e+00 0.000000000000000000e+00 0.000000000000000000e+00 0.000000000000000000e+00 0.000000000000000000e+00 1.589678716838055191e-16
3.110917254086213786e-19 1.620181940218729151e-04 3.251717580767963991e-04 4.817915777735164444e-04 6.200776882964182529e-04 7.233663421203789280e-04
6.221834508172427572e-19 3.240363880437458302e-04 6.503435161535927982e-04 9.635831555470328888e-04 1.240155376592836506e-03 1.446732684240598912e-03
9.332751762258641358e-19 4.860545820656187723e-04 9.755152742303891972e-04 1.445374733320549387e-03 1.860233064889254759e-03 2.170099026360819330e-03
1.244366901634485514e-18 6.480727760874916603e-04 1.300687032307185596e-03 1.927166311094065778e-03 2.480310753185673012e-03 2.893465368481039097e-03
1.555458627043106893e-18 8.100909701093645483e-04 1.625858790383981995e-03 2.408957888867582168e-03 3.100388441482091265e-03 3.616831710601257563e-03
1.866550352451728272e-18 9.721091641312375447e-04 1.951030548460778394e-03 2.890749466641098775e-03 3.720466129778509518e-03 4.340198052721477330e-03
2.177642077860349650e-18 1.134127358153110433e-03 2.276202306537574577e-03 3.372541044414614948e-03 4.340543818074927770e-03 5.063564394841697965e-03
2.488733803268971029e-18 1.296145552174983321e-03 2.601374064614371193e-03 3.854332622188131555e-03 4.960621506371346023e-03 5.786930736961916864e-03
2.799825528677592407e-18 1.458163746196856209e-03 2.926545822691167809e-03 4.336124199961648162e-03 5.580699194667764276e-03 6.510297079082136631e-03
3.110917254086213786e-18 1.620181940218729097e-03 3.251717580767963991e-03 4.817915777735164336e-03 6.200776882964182529e-03 7.233663421202357266e-03
3.422008979494835165e-18 1.782200134240601985e-03 3.576889338844760173e-03 5.299707355508680509e-03 6.820854571260600782e-03 7.957029763322577900e-03
3.733100704903456543e-18 1.944218328262475089e-03 3.902061096921556789e-03 5.781498933282197550e-03 7.440932259557019035e-03 8.680396105442798535e-03
4.044192430312077922e-18 2.106236522284347761e-03 4.227232854998353405e-03 6.263290511055713723e-03 8.061009947853437288e-03 9.403762447563017435e-03
4.355284155720699300e-18 2.268254716306220865e-03 4.552404613075149153e-03 6.745082088829229897e-03 8.681087636149855541e-03 1.012712878968323980e-02
4.666375881129320679e-18 2.430272910328093536e-03 4.877576371151945769e-03 7.226873666602746937e-03 9.301165324446273794e-03 1.085049513180345870e-02
0.000000000000000000e+00 0.000000000000000000e+00 0.000000000000000000e+00 0.000000000000000000e+00 0.000000000000000000e+00 1.589678716838055191e-16
3.110917254086213786e-19 1.620181940218729151e-04 3.251717580767963991e-04 4.817915777735164444e-04 6.200776882964182529e-04 7.233663421203799038e-04
6.221834508172427572e-19 3.240363880437458302e-04 6.503435161535927982e-04 9.635831555470328888e-04 1.240155376592836506e-03 1.446732684240599346e-03
9.332751762258641358e-19 4.860545820656187723e-04 9.755152742303891972e-04 1.445374733320549387e-03 1.860233064889254759e-03 2.170099026360819330e-03
1.244366901634485514e-18 6.480727760874916603e-04 1.300687032307185596e-03 1.927166311094065778e-03 2.480310753185673012e-03 2.893465368481039097e-03
1.555458627043106893e-18 8.100909701093645483e-04 1.625858790383981995e-03 2.408957888867582168e-03 3.100388441482091265e-03 3.616831710601257563e-03
1.866550352451728272e-18 9.721091641312375447e-04 1.951030548460778394e-03 2.890749466641098775e-03 3.720466129778509518e-03 4.340198052721478197e-03
2.177642077860349650e-18 1.134127358153110433e-03 2.276202306537574577e-03 3.372541044414614948e-03 4.340543818074927770e-03 5.063564394841697097e-03
2.488733803268971029e-18 1.296145552174983321e-03 2.601374064614371193e-03 3.854332622188131555e-03 4.960621506371346023e-03 5.786930736961916864e-03
2.799825528677592407e-18 1.458163746196856209e-03 2.926545822691167809e-03 4.336124199961648162e-03 5.580699194667764276e-03 6.510297079082137499e-03
3.110917254086213786e-18 1.620181940218729097e-03 3.251717580767963991e-03 4.817915777735164336e-03 6.200776882964182529e-03 7.233663421202356399e-03
3.422008979494835165e-18 1.782200134240601985e-03 3.576889338844760173e-03 5.299707355508680509e-03 6.820854571260600782e-03 7.957029763322577900e-03
3.733100704903456543e-18 1.944218328262475089e-03 3.902061096921556789e-03 5.781498933282197550e-03 7.440932259557019035e-03 8.680396105442798535e-03
4.044192430312077922e-18 2.106236522284347761e-03 4.227232854998353405e-03 6.263290511055713723e-03 8.061009947853437288e-03 9.403762447563017435e-03
4.355284155720699300e-18 2.268254716306220865e-03 4.552404613075149153e-03 6.745082088829229897e-03 8.681087636149855541e-03 1.012712878968323980e-02
4.666375881129320679e-18 2.430272910328093536e-03 4.877576371151945769e-03 7.226873666602746937e-03 9.301165324446273794e-03 1.085049513180345870e-02
0.000000000000000000e+00 0.000000000000000000e+00 0.000000000000000000e+00 0.000000000000000000e+00 0.000000000000000000e+00 1.595900551346227726e-16
3.110917254086213786e-19 1.620181940218729151e-04 3.251717580767963991e-04 4.817915777735164444e-04 6.200776882964182529e-04 7.233663421203786028e-04
6.221834508172427572e-19 3.240363880437458302e-04 6.503435161535927982e-04 9.635831555470328888e-04 1.240155376592836506e-03 1.446732684240598261e-03
9.332751762258641358e-19 4.860545820656187723e-04 9.755152742303891972e-04 1.445374733320549387e-03 1.860233064889254759e-03 2.170099026360818462e-03
1.244366901634485514e-18 6.480727760874916603e-04 1.300687032307185596e-03 1.927166311094065778e-03 2.480310753185673012e-03 2.893465368481038229e-03
1.555458627043106893e-18 8.100909701093645483e-04 1.625858790383981995e-03 2.408957888867582168e-03 3.100388441482091265e-03 3.616831710601257997e-03
1.866550352451728272e-18 9.721091641312375447e-04 1.951030548460778394e-03 2.890749466641098775e-03 3.720466129778509518e-03 4.340198052721479065e-03
2.177642077860349650e-18 1.134127358153110433e-03 2.276202306537574577e-03 3.372541044414614948e-03 4.340543818074927770e-03 5.063564394841697965e-03
2.488733803268971029e-18 1.296145552174983321e-03 2.601374064614371193e-03 3.854332622188131555e-03 4.960621506371346023e-03 5.786930736961915997e-03
2.799825528677592407e-18 1.458163746196856209e-03 2.926545822691167809e-03 4.336124199961648162e-03 5.580699194667764276e-03 6.510297079082135764e-03
3.110917254086213786e-18 1.620181940218729097e-03 3.251717580767963991e-03 4.817915777735164336e-03 6.200776882964182529e-03 7.233663421202356399e-03
3.422008979494835165e-18 1.782200134240601985e-03 3.576889338844760173e-03 5.299707355508680509e-03 6.820854571260600782e-03 7.957029763322577900e-03
3.733100704903456543e-18 1.944218328262475089e-03 3.902061096921556789e-03 5.781498933282197550e-03 7.440932259557019035e-03 8.680396105442796800e-03
4.044192430312077922e-18 2.106236522284347761e-03 4.227232854998353405e-03 6.263290511055713723e-03 8.061009947853437288e-03 9.403762447563017435e-03
4.355284155720699300e-18 2.268254716306220865e-03 4.552404613075149153e-03 6.745082088829229897e-03 8.681087636149855541e-03 1.012712878968323807e-02
4.666375881129320679e-18 2.430272910328093536e-03 4.877576371151945769e-03 7.226873666602746937e-03 9.301165324446273794e-03 1.085049513180345697e-02
0.000000000000000000e+00 0.000000000000000000e+00 0.000000000000000000e+00 0.000000000000000000e+00 0.000000000000000000e+00 1.589678716838055191e-16
3.110917254086213786e-19 1.620181940218729151e-04 3.251717580767963991e-04 4.817915777735164444e-04 6.200776882964182529e-04 7.233663421203799038e-04
6.221834508172427572e-19 3.240363880437458302e-04 6.503435161535927982e-04 9.635831555470328888e-04 1.240155376592836506e-03 1.446732684240599563e-03
9.332751762258641358e-19 4.860545820656187723e-04 9.755152742303891972e-04 1.445374733320549387e-03 1.860233064889254759e-03 2.170099026360819763e-03
1.244366901634485514e-18 6.480727760874916603e-04 1.300687032307185596e-03 1.927166311094065778e-03 2.480310753185673012e-03 2.893465368481038229e-03
1.555458627043106893e-18 8.100909701093645483e-04 1.625858790383981995e-03 2.408957888867582168e-03 3.100388441482091265e-03 3.616831710601258430e-03
1.866550352451728272e-18 9.721091641312375447e-04 1.951030548460778394e-03 2.890749466641098775e-03 3.720466129778509518e-03 4.340198052721478197e-03
2.177642077860349650e-18 1.134127358153110433e-03 2.276202306537574577e-03 3.372541044414614948e-03 4.340543818074927770e-03 5.063564394841697965e-03
2.488733803268971029e-18 1.296145552174983321e-03 2.601374064614371193e-03 3.854332622188131555e-03 4.960621506371346023e-03 5.786930736961916864e-03
2.799825528677592407e-18 1.458163746196856209e-03 2.926545822691167809e-03 4.336124199961648162e-03 5.580699194667764276e-03 6.510297079082136631e-03
3.110917254086213786e-18 1.620181940218729097e-03 3.251717580767963991e-03 4.817915777735164336e-03 6.200776882964182529e-03 7.233663421202356399e-03
3.422008979494835165e-18 1.782200134240601985e-03 3.576889338844760173e-03 5.299707355508680509e-03 6.820854571260600782e-03 7.957029763322577900e-03
3.733100704903456543e-18 1.944218328262475089e-03 3.902061096921556789e-03 5.781498933282197550e-03 7.440932259557019035e-03 8.680396105442798535e-03
4.044192430312077922e-18 2.106236522284347761e-03 4.227232854998353405e-03 6.263290511055713723e-03 8.061009947853437288e-03 9.403762447563017435e-03
4.355284155720699300e-18 2.268254716306220865e-03 4.552404613075149153e-03 6.745082088829229897e-03 8.681087636149855541e-03 1.012712878968323807e-02
4.666375881129320679e-18 2.430272910328093536e-03 4.877576371151945769e-03 7.226873666602746937e-03 9.301165324446273794e-03 1.085049513180345870e-02
0.000000000000000000e+00 0.000000000000000000e+00 0.000000000000000000e+00 0.000000000000000000e+00 0.000000000000000000e+00 1.595900551346227726e-16
3.110917254086213786e-19 1.620181940218729151e-04 3.251717580767963991e-04 4.817915777735164444e-04 6.200776882964182529e-04 7.233663421203799038e-04
6.221834508172427572e-19 3.240363880437458302e-04 6.503435161535927982e-04 9.635831555470328888e-04 1.240155376592836506e-03 1.446732684240599563e-03
9.332751762258641358e-19 4.860545820656187723e-04 9.755152742303891972e-04 1.445374733320549387e-03 1.860233064889254759e-03 2.170099026360819763e-03
1.244366901634485514e-18 6.480727760874916603e-04 1.300687032307185596e-03 1.927166311094065778e-03 2.480310753185673012e-03 2.893465368481039097e-03
1.555458627043106893e-18 8.100909701093645483e-04 1.625858790383981995e-03 2.408957888867582168e-03 3.100388441482091265e-03 3.616831710601258430e-03
1.866550352451728272e-18 9.721091641312375447e-04 1.951030548460778394e-03 2.890749466641098775e-03 3.720466129778509518e-03 4.340198052721478197e-03
2.177642077860349650e-18 1.134127358153110433e-03 2.276202306537574577e-03 3.372541044414614948e-03 4.340543818074927770e-03 5.063564394841697965e-03
2.488733803268971029e-18 1.296145552174983321e-03 2.601374064614371193e-03 3.854332622188131555e-03 4.960621506371346023e-03 5.786930736961917732e-03
2.799825528677592407e-18 1.458163746196856209e-03 2.926545822691167809e-03 4.336124199961648162e-03 5.580699194667764276e-03 6.510297079082136631e-03
3.110917254086213786e-18 1.620181940218729097e-03 3.251717580767963991e-03 4.817915777735164336e-03 6.200776882964182529e-03 7.233663421202356399e-03
3.422008979494835165e-18 1.782200134240601985e-03 3.576889338844760173e-03 5.299707355508680509e-03 6.820854571260600782e-03 7.957029763322577900e-03
3.733100704903456543e-18 1.944218328262475089e-03 3.902061096921556789e-03 5.781498933282197550e-03 7.440932259557019035e-03 8.680396105442798535e-03
4.044192430312077922e-18 2.106236522284347761e-03 4.227232854998353405e-03 6.263290511055713723e-03 8.061009947853437288e-03 9.403762447563017435e-03
4.355284155720699300e-18 2.268254716306220865e-03 4.552404613075149153e-03 6.745082088829229897e-03 8.681087636149855541e-03 1.012712878968323807e-02
4.666375881129320679e-18 2.430272910328093536e-03 4.877576371151945769e-03 7.226873666602746937e-03 9.301165324446273794e-03 1.085049513180345697e-02
0.000000000000000000e+00 0.000000000000000000e+00 0.000000000000000000e+00 0.000000000000000000e+00 0.000000000000000000e+00 1.595900551346227726e-16
3.110917254086213786e-19 1.620181940218729151e-04 3.251717580767963991e-04 4.817915777735164444e-04 6.200776882964182529e-04 7.233663421203792533e-04
6.221834508172427572e-19 3.240363880437458302e-04 6.503435161535927982e-04 9.635831555470328888e-04 1.240155376592836506e-03 1.446732684240599346e-03
9.332751762258641358e-19 4.860545820656187723e-04 9.755152742303891972e-04 1.445374733320549387e-03 1.860233064889254759e-03 2.170099026360819763e-03
1.244366901634485514e-18 6.480727760874916603e-04 1.300687032307185596e-03 1.927166311094065778e-03 2.480310753185673012e-03 2.893465368481039530e-03
1.555458627043106893e-18 8.100909701093645483e-04 1.625858790383981995e-03 2.408957888867582168e-03 3.100388441482091265e-03 3.616831710601258864e-03
1.866550352451728272e-18 9.721091641312375447e-04 1.951030548460778394e-03 2.890749466641098775e-03 3.720466129778509518e-03 4.340198052721479065e-03
2.177642077860349650e-18 1.134127358153110433e-03 2.276202306537574577e-03 3.372541044414614948e-03 4.340543818074927770e-03 5.063564394841698832e-03
2.488733803268971029e-18 1.296145552174983321e-03 2.601374064614371193e-03 3.854332622188131555e-03 4.960621506371346023e-03 5.786930736961916864e-03
2.799825528677592407e-18 1.458163746196856209e-03 2.926545822691167809e-03 4.336124199961648162e-03 5.580699194667764276e-03 6.510297079082136631e-03
3.110917254086213786e-18 1.620181940218729097e-03 3.251717580767963991e-03 4.817915777735164336e-03 6.200776882964182529e-03 7.233663421202356399e-03
3.422008979494835165e-18 1.782200134240601985e-03 3.576889338844760173e-03 5.299707355508680509e-03 6.820854571260600782e-03 7.957029763322576166e-03
3.733100704903456543e-18 1.944218328262475089e-03 3.902061096921556789e-03 5.781498933282197550e-03 7.440932259557019035e-03 8.680396105442796800e-03
4.044192430312077922e-18 2.106236522284347761e-03 4.227232854998353405e-03 6.263290511055713723e-03 8.061009947853437288e-03 9.403762447563017435e-03
4.355284155720699300e-18 2.268254716306220865e-03 4.552404613075149153e-03 6.745082088829229897e-03 8.681087636149855541e-03 1.012712878968323807e-02
4.666375881129320679e-18 2.430272910328093536e-03 4.877576371151945769e-03 7.226873666602746937e-03 9.301165324446273794e-03 1.085049513180345697e-02
0.000000000000000000e+00 0.000000000000000000e+00 0.000000000000000000e+00 0.000000000000000000e+00 0.000000000000000000e+00 1.589678716838055191e-16
3.110917254086213786e-19 1.620181940218729151e-04 3.251717580767963991e-04 4.817915777735164444e-04 6.200776882964182529e-04 7.233663421203792533e-04
6.221834508172427572e-19 3.240363880437458302e-04 6.503435161535927982e-04 9.635831555470328888e-04 1.240155376592836506e-03 1.446732684240599563e-03
9.332751762258641358e-19 4.860545820656187723e-04 9.755152742303891972e-04 1.445374733320549387e-03 1.860233064889254759e-03 2.170099026360819330e-03
1.244366901634485514e-18 6.480727760874916603e-04 1.300687032307185596e-03 1.927166311094065778e-03 2.480310753185673012e-03 2.893465368481039097e-03
1.555458627043106893e-18 8.100909701093645483e-04 1.625858790383981995e-03 2.408957888867582168e-03 3.100388441482091265e-03 3.616831710601258864e-03
1.866550352451728272e-18 9.721091641312375447e-04 1.951030548460778394e-03 2.890749466641098775e-03 3.720466129778509518e-03 4.340198052721479932e-03
2.177642077860349650e-18 1.134127358153110433e-03 2.276202306537574577e-03 3.372541044414614948e-03 4.340543818074927770e-03 5.063564394841698832e-03
2.488733803268971029e-18 1.296145552174983321e-03 2.601374064614371193e-03 3.854332622188131555e-03 4.960621506371346023e-03 5.786930736961917732e-03
2.799825528677592407e-18 1.458163746196856209e-03 2.926545822691167809e-03 4.336124199961648162e-03 5.580699194667764276e-03 6.510297079082137499e-03
3.110917254086213786e-18 1.620181940218729097e-03 3.251717580767963991e-03 4.817915777735164336e-03 6.200776882964182529e-03 7.233663421202355531e-03
3.422008979494835165e-18 1.782200134240601985e-03 3.576889338844760173e-03 5.299707355508680509e-03 6.820854571260600782e-03 7.957029763322577900e-03
3.733100704903456543e-18 1.944218328262475089e-03 3.902061096921556789e-03 5.781498933282197550e-03 7.440932259557019035e-03 8.680396105442796800e-03
4.044192430312077922e-18 2.106236522284347761e-03 4.227232854998353405e-03 6.263290511055713723e-03 8.061009947853437288e-03 9.403762447563017435e-03
4.355284155720699300e-18 2.268254716306220865e-03 4.552404613075149153e-03 6.745082088829229897e-03 8.681087636149855541e-03 1.012712878968323807e-02
4.666375881129320679e-18 2.430272910328093536e-03 4.877576371151945769e-03 7.226873666602746937e-03 9.301165324446273794e-03 1.085049513180345697e-02
0.000000000000000000e+00 0.000000000000000000e+00 0.000000000000000000e+00 0.000000000000000000e+00 0.000000000000000000e+00 1.586567799583968923e-16
3.110917254086213786e-19 1.620181940218729151e-04 3.251717580767963991e-04 4.817915777735164444e-04 6.200776882964182529e-04 7.233663421203786028e-04
6.221834508172427572e-19 3.240363880437458302e-04 6.503435161535927982e-04 9.635831555470328888e-04 1.240155376592836506e-03 1.446732684240598912e-03
9.332751762258641358e-19 4.860545820656187723e-04 9.755152742303891972e-04 1.445374733320549387e-03 1.860233064889254759e-03 2.170099026360819330e-03
1.244366901634485514e-18 6.480727760874916603e-04 1.300687032307185596e-03 1.927166311094065778e-03 2.480310753185673012e-03 2.893465368481039964e-03
1.555458627043106893e-18 8.100909701093645483e-04 1.625858790383981995e-03 2.408957888867582168e-03 3.100388441482091265e-03 3.616831710601259298e-03
1.866550352451728272e-18 9.721091641312375447e-04 1.951030548460778394e-03 2.890749466641098775e-03 3.720466129778509518e-03 4.340198052721479065e-03
2.177642077860349650e-18 1.134127358153110433e-03 2.276202306537574577e-03 3.372541044414614948e-03 4.340543818074927770e-03 5.063564394841698832e-03
2.488733803268971029e-18 1.296145552174983321e-03 2.601374064614371193e-03 3.854332622188131555e-03 4.960621506371346023e-03 5.786930736961917732e-03
2.799825528677592407e-18 1.458163746196856209e-03 2.926545822691167809e-03 4.336124199961648162e-03 5.580699194667764276e-03 6.510297079082137499e-03
3.110917254086213786e-18 1.620181940218729097e-03 3.251717580767963991e-03 4.817915777735164336e-03 6.200776882964182529e-03 7.233663421202356399e-03
3.422008979494835165e-18 1.782200134240601985e-03 3.576889338844760173e-03 5.299707355508680509e-03 6.820854571260600782e-03 7.957029763322577900e-03
3.733100704903456543e-18 1.944218328262475089e-03 3.902061096921556789e-03 5.781498933282197550e-03 7.440932259557019035e-03 8.680396105442798535e-03
4.044192430312077922e-18 2.106236522284347761e-03 4.227232854998353405e-03 6.263290511055713723e-03 8.061009947853437288e-03 9.403762447563017435e-03
4.355284155720699300e-18 2.268254716306220865e-03 4.552404613075149153e-03 6.745082088829229897e-03 8.681087636149855541e-03 1.012712878968323807e-02
4.666375881129320679e-18 2.430272910328093536e-03 4.877576371151945769e-03 7.226873666602746937e-03 9.301165324446273794e-03 1.085049513180345697e-02
0.000000000000000000e+00 0.000000000000000000e+00 0.000000000000000000e+00 0.000000000000000000e+00 0.000000000000000000e+00 1.580345965075796634e-16
3.110917254086213786e-19 1.620181940218729151e-04 3.251717580767963991e-04 4.817915777735164444e-04 6.200776882964182529e-04 7.233663421203777354e-04
6.221834508172427572e-19 3.240363880437458302e-04 6.503435161535927982e-04 9.635831555470328888e-04 1.240155376592836506e-03 1.446732684240598695e-03
9.332751762258641358e-19 4.860545820656187723e-04 9.755152742303891972e-04 1.445374733320549387e-03 1.860233064889254759e-03 2.170099026360819330e-03
1.244366901634485514e-18 6.480727760874916603e-04 1.300687032307185596e-03 1.927166311094065778e-03 2.480310753185673012e-03 2.893465368481038663e-03
1.555458627043106893e-18 8.100909701093645483e-04 1.625858790383981995e-03 2.408957888867582168e-03 3.100388441482091265e-03 3.616831710601258864e-03
1.866550352451728272e-18 9.721091641312375447e-04 1.951030548460778394e-03 2.890749466641098775e-03 3.720466129778509518e-03 4.340198052721479065e-03
2.177642077860349650e-18 1.134127358153110433e-03 2.276202306537574577e-03 3.372541044414614948e-03 4.340543818074927770e-03 5.063564394841698832e-03
2.488733803268971029e-18 1.296145552174983321e-03 2.601374064614371193e-03 3.854332622188131555e-03 4.960621506371346023e-03 5.786930736961918599e-03
2.799825528677592407e-18 1.458163746196856209e-03 2.926545822691167809e-03 4.336124199961648162e-03 5.580699194667764276e-03 6.510297079082138366e-03
3.110917254086213786e-18 1.620181940218729097e-03 3.251717580767963991e-03 4.817915777735164336e-03 6.200776882964182529e-03 7.233663421202357266e-03
3.422008979494835165e-18 1.782200134240601985e-03 3.576889338844760173e-03 5.299707355508680509e-03 6.820854571260600782e-03 7.957029763322577900e-03
3.733100704903456543e-18 1.944218328262475089e-03 3.902061096921556789e-03 5.781498933282197550e-03 7.440932259557019035e-03 8.680396105442798535e-03
4.044192430312077922e-18 2.106236522284347761e-03 4.227232854998353405e-03 6.263290511055713723e-03 8.061009947853437288e-03 9.403762447563015700e-03
4.355284155720699300e-18 2.268254716306220865e-03 4.552404613075149153e-03 6.745082088829229897e-03 8.681087636149855541e-03 1.012712878968323807e-02
4.666375881129320679e-18 2.430272910328093536e-03 4.877576371151945769e-03 7.226873666602746937e-03 9.301165324446273794e-03 1.085049513180345697e-02
0.000000000000000000e+00 0.000000000000000000e+00 0.000000000000000000e+00 0.000000000000000000e+00 0.000000000000000000e+00 1.580345965075796634e-16
3.110917254086213786e-19 1.620181940218729151e-04 3.251717580767963991e-04 4.817915777735164444e-04 6.200776882964182529e-04 7.233663421203780607e-04
6.221834508172427572e-19 3.240363880437458302e-04 6.503435161535927982e-04 9.635831555470328888e-04 1.240155376592836506e-03 1.446732684240598912e-03
9.332751762258641358e-19 4.860545820656187723e-04 9.755152742303891972e-04 1.445374733320549387e-03 1.860233064889254759e-03 2.170099026360819330e-03
1.244366901634485514e-18 6.480727760874916603e-04 1.300687032307185596e-03 1.927166311094065778e-03 2.480310753185673012e-03 2.893465368481039097e-03
1.555458627043106893e-18 8.100909701093645483e-04 1.625858790383981995e-03 2.408957888867582168e-03 3.100388441482091265e-03 3.616831710601258864e-03
1.866550352451728272e-18 9.721091641312375447e-04 1.951030548460778394e-03 2.890749466641098775e-03 3.720466129778509518e-03 4.340198052721479932e-03
2.177642077860349650e-18 1.134127358153110433e-03 2.276202306537574577e-03 3.372541044414614948e-03 4.340543818074927770e-03 5.063564394841699699e-03
2.488733803268971029e-18 1.296145552174983321e-03 2.601374064614371193e-03 3.854332622188131555e-03 4.960621506371346023e-03 5.786930736961919466e-03
2.799825528677592407e-18 1.458163746196856209e-03 2.926545822691167809e-03 4.336124199961648162e-03 5.580699194667764276e-03 6.510297079082138366e-03
3.110917254086213786e-18 1.620181940218729097e-03 3.251717580767963991e-03 4.817915777735164336e-03 6.200776882964182529e-03 7.233663421202358133e-03
3.422008979494835165e-18 1.782200134240601985e-03 3.576889338844760173e-03 5.299707355508680509e-03 6.820854571260600782e-03 7.957029763322577900e-03
3.733100704903456543e-18 1.944218328262475089e-03 3.902061096921556789e-03 5.781498933282197550e-03 7.440932259557019035e-03 8.680396105442796800e-03
4.044192430312077922e-18 2.106236522284347761e-03 4.227232854998353405e-03 6.263290511055713723e-03 8.061009947853437288e-03 9.403762447563015700e-03
4.355284155720699300e-18 2.268254716306220865e-03 4.552404613075149153e-03 6.745082088829229897e-03 8.681087636149855541e-03 1.012712878968323807e-02
4.666375881129320679e-18 2.430272910328093536e-03 4.877576371151945769e-03 7.226873666602746937e-03 9.301165324446273794e-03 1.085049513180345697e-02
0.000000000000000000e+00 0.000000000000000000e+00 0.000000000000000000e+00 0.000000000000000000e+00 0.000000000000000000e+00 1.571013213313538078e-16
3.110917254086213786e-19 1.620181940218729151e-04 3.251717580767963991e-04 4.817915777735164444e-04 6.200776882964182529e-04 7.233663421203782775e-04
6.221834508172427572e-19 3.240363880437458302e-04 6.503435161535927982e-04 9.635831555470328888e-04 1.240155376592836506e-03 1.446732684240598261e-03
9.332751762258641358e-19 4.860545820656187723e-04 9.755152742303891972e-04 1.445374733320549387e-03 1.860233064889254759e-03 2.170099026360818896e-03
1.244366901634485514e-18 6.480727760874916603e-04 1.300687032307185596e-03 1.927166311094065778e-03 2.480310753185673012e-03 2.893465368481039097e-03
1.555458627043106893e-18 8.100909701093645483e-04 1.625858790383981995e-03 2.408957888867582168e-03 3.100388441482091265e-03 3.616831710601258864e-03
1.866550352451728272e-18 9.721091641312375447e-04 1.951030548460778394e-03 2.890749466641098775e-03 3.720466129778509518e-03 4.340198052721480799e-03
2.177642077860349650e-18 1.134127358153110433e-03 2.276202306537574577e-03 3.372541044414614948e-03 4.340543818074927770e-03 5.063564394841699699e-03
2.488733803268971029e-18 1.296145552174983321e-03 2.601374064614371193e-03 3.854332622188131555e-03 4.960621506371346023e-03 5.786930736961919466e-03
2.799825528677592407e-18 1.458163746196856209e-03 2.926545822691167809e-03 4.336124199961648162e-03 5.580699194667764276e-03 6.510297079082139234e-03
3.110917254086213786e-18 1.620181940218729097e-03 3.251717580767963991e-03 4.817915777735164336e-03 6.200776882964182529e-03 7.233663421202358133e-03
3.422008979494835165e-18 1.782200134240601985e-03 3.576889338844760173e-03 5.299707355508680509e-03 6.820854571260600782e-03 7.957029763322577900e-03
3.733100704903456543e-18 1.944218328262475089e-03 3.902061096921556789e-03 5.781498933282197550e-03 7.440932259557019035e-03 8.680396105442798535e-03
4.044192430312077922e-18 2.106236522284347761e-03 4.227232854998353405e-03 6.263290511055713723e-03 8.061009947853437288e-03 9.403762447563015700e-03
4.355284155720699300e-18 2.268254716306220865e-03 4.552404613075149153e-03 6.745082088829229897e-03 8.681087636149855541e-03 1.012712878968323633e-02
4.666375881129320679e-18 2.430272910328093536e-03 4.877576371151945769e-03 7.226873666602746937e-03 9.301165324446273794e-03 1.085049513180345697e-02
0.000000000000000000e+00 0.000000000000000000e+00 0.000000000000000000e+00 0.000000000000000000e+00 0.000000000000000000e+00 1.567902296059451810e-16
3.110917254086213786e-19 1.620181940218729151e-04 3.251717580767963991e-04 4.817915777735164444e-04 6.200776882964182529e-04 7.233663421203774101e-04
6.221834508172427572e-19 3.240363880437458302e-04 6.503435161535927982e-04 9.635831555470328888e-04 1.240155376592836506e-03 1.446732684240597611e-03
9.332751762258641358e-19 4.860545820656187723e-04 9.755152742303891972e-04 1.445374733320549387e-03 1.860233064889254759e-03 2.170099026360818462e-03
1.244366901634485514e-18 6.480727760874916603e-04 1.300687032307185596e-03 1.927166311094065778e-03 2.480310753185673012e-03 2.893465368481039097e-03
1.555458627043106893e-18 8.100909701093645483e-04 1.625858790383981995e-03 2.408957888867582168e-03 3.100388441482091265e-03 3.616831710601258864e-03
1.866550352451728272e-18 9.721091641312375447e-04 1.951030548460778394e-03 2.890749466641098775e-03 3.720466129778509518e-03 4.340198052721479932e-03
2.177642077860349650e-18 1.134127358153110433e-03 2.276202306537574577e-03 3.372541044414614948e-03 4.340543818074927770e-03 5.063564394841699699e-03
2.488733803268971029e-18 1.296145552174983321e-03 2.601374064614371193e-03 3.854332622188131555e-03 4.960621506371346023e-03 5.786930736961918599e-03
2.799825528677592407e-18 1.458163746196856209e-03 2.926545822691167809e-03 4.336124199961648162e-03 5.580699194667764276e-03 6.510297079082138366e-03
3.110917254086213786e-18 1.620181940218729097e-03 3.251717580767963991e-03 4.817915777735164336e-03 6.200776882964182529e-03 7.233663421202358133e-03
3.422008979494835165e-18 1.782200134240601985e-03 3.576889338844760173e-03 5.299707355508680509e-03 6.820854571260600782e-03 7.957029763322577900e-03
3.733100704903456543e-18 1.944218328262475089e-03 3.902061096921556789e-03 5.781498933282197550e-03 7.440932259557019035e-03 8.680396105442798535e-03
4.044192430312077922e-18 2.106236522284347761e-03 4.227232854998353405e-03 6.263290511055713723e-03 8.061009947853437288e-03 9.403762447563017435e-03
4.355284155720699300e-18 2.268254716306220865e-03 4.552404613075149153e-03 6.745082088829229897e-03 8.681087636149855541e-03 1.012712878968323633e-02
4.666375881129320679e-18 2.430272910328093536e-03 4.877576371151945769e-03 7.226873666602746937e-03 9.301165324446273794e-03 1.085049513180345697e-02
0.000000000000000000e+00 0.000000000000000000e+00 0.000000000000000000e+00 0.000000000000000000e+00 0.000000000000000000e+00 1.574124130567624099e-16
3.110917254086213786e-19 1.620181940218729151e-04 3.251717580767963991e-04 4.817915777735164444e-04 6.200776882964182529e-04 7.233663421203767596e-04
6.221834508172427572e-19 3.240363880437458302e-04 6.503435161535927982e-04 9.635831555470328888e-04 1.240155376592836506e-03 1.446732684240598045e-03
9.332751762258641358e-19 4.860545820656187723e-04 9.755152742303891972e-04 1.445374733320549387e-03 1.860233064889254759e-03 2.170099026360817595e-03
1.244366901634485514e-18 6.480727760874916603e-04 1.300687032307185596e-03 1.927166311094065778e-03 2.480310753185673012e-03 2.893465368481038663e-03
1.555458627043106893e-18 8.100909701093645483e-04 1.625858790383981995e-03 2.408957888867582168e-03 3.100388441482091265e-03 3.616831710601258864e-03
1.866550352451728272e-18 9.721091641312375447e-04 1.951030548460778394e-03 2.890749466641098775e-03 3.720466129778509518e-03 4.340198052721479932e-03
2.177642077860349650e-18 1.134127358153110433e-03 2.276202306537574577e-03 3.372541044414614948e-03 4.340543818074927770e-03 5.063564394841699699e-03
2.488733803268971029e-18 1.296145552174983321e-03 2.601374064614371193e-03 3.854332622188131555e-03 4.960621506371346023e-03 5.786930736961919466e-03
2.799825528677592407e-18 1.458163746196856209e-03 2.926545822691167809e-03 4.336124199961648162e-03 5.580699194667764276e-03 6.510297079082139234e-03
3.110917254086213786e-18 1.620181940218729097e-03 3.251717580767963991e-03 4.817915777735164336e-03 6.200776882964182529e-03 7.233663421202359001e-03
3.422008979494835165e-18 1.782200134240601985e-03 3.576889338844760173e-03 5.299707355508680509e-03 6.820854571260600782e-03 7.957029763322577900e-03
3.733100704903456543e-18 1.944218328262475089e-03 3.902061096921556789e-03 5.781498933282197550e-03 7.440932259557019035e-03 8.680396105442798535e-03
4.044192430312077922e-18 2.106236522284347761e-03 4.227232854998353405e-03 6.263290511055713723e-03 8.061009947853437288e-03 9.403762447563017435e-03
4.355284155720699300e-18 2.268254716306220865e-03 4.552404613075149153e-03 6.745082088829229897e-03 8.681087636149855541e-03 1.012712878968323807e-02
4.666375881129320679e-18 2.430272910328093536e-03 4.877576371151945769e-03 7.226873666602746937e-03 9.301165324446273794e-03 1.085049513180345697e-02
0.000000000000000000e+00 0.000000000000000000e+00 0.000000000000000000e+00 0.000000000000000000e+00 0.000000000000000000e+00 1.577235047821710366e-16
3.110917254086213786e-19 1.620181940218729151e-04 3.251717580767963991e-04 4.817915777735164444e-04 6.200776882964182529e-04 7.233663421203770849e-04
6.221834508172427572e-19 3.240363880437458302e-04 6.503435161535927982e-04 9.635831555470328888e-04 1.240155376592836506e-03 1.446732684240597611e-03
9.332751762258641358e-19 4.860545820656187723e-04 9.755152742303891972e-04 1.445374733320549387e-03 1.860233064889254759e-03 2.170099026360818029e-03
1.244366901634485514e-18 6.480727760874916603e-04 1.300687032307185596e-03 1.927166311094065778e-03 2.480310753185673012e-03 2.893465368481037796e-03
1.555458627043106893e-18 8.100909701093645483e-04 1.625858790383981995e-03 2.408957888867582168e-03 3.100388441482091265e-03 3.616831710601258864e-03
1.866550352451728272e-18 9.721091641312375447e-04 1.951030548460778394e-03 2.890749466641098775e-03 3.720466129778509518e-03 4.340198052721479932e-03
2.177642077860349650e-18 1.134127358153110433e-03 2.276202306537574577e-03 3.372541044414614948e-03 4.340543818074927770e-03 5.063564394841699699e-03
2.488733803268971029e-18 1.296145552174983321e-03 2.601374064614371193e-03 3.854332622188131555e-03 4.960621506371346023e-03 5.786930736961919466e-03
2.799825528677592407e-18 1.458163746196856209e-03 2.926545822691167809e-03 4.336124199961648162e-03 5.580699194667764276e-03 6.510297079082139234e-03
3.110917254086213786e-18 1.620181940218729097e-03 3.251717580767963991e-03 4.817915777735164336e-03 6.200776882964182529e-03 7.233663421202358133e-03
3.422008979494835165e-18 1.782200134240601985e-03 3.576889338844760173e-03 5.299707355508680509e-03 6.820854571260600782e-03 7.957029763322577900e-03
3.733100704903456543e-18 1.944218328262475089e-03 3.902061096921556789e-03 5.781498933282197550e-03 7.440932259557019035e-03 8.680396105442798535e-03
4.044192430312077922e-18 2.106236522284347761e-03 4.227232854998353405e-03 6.263290511055713723e-03 8.061009947853437288e-03 9.403762447563017435e-03
4.355284155720699300e-18 2.268254716306220865e-03 4.552404613075149153e-03 6.745082088829229897e-03 8.681087636149855541e-03 1.012712878968323807e-02
4.666375881129320679e-18 2.430272910328093536e-03 4.877576371151945769e-03 7.226873666602746937e-03 9.301165324446273794e-03 1.085049513180345697e-02
0.000000000000000000e+00 0.000000000000000000e+00 0.000000000000000000e+00 0.000000000000000000e+00 0.000000000000000000e+00 1.564791378805365542e-16
3.110917254086213786e-19 1.620181940218729151e-04 3.251717580767963991e-04 4.817915777735164444e-04 6.200776882964182529e-04 7.233663421203777354e-04
6.221834508172427572e-19 3.240363880437458302e-04 6.503435161535927982e-04 9.635831555470328888e-04 1.240155376592836506e-03 1.446732684240597611e-03
9.332751762258641358e-19 4.860545820656187723e-04 9.755152742303891972e-04 1.445374733320549387e-03 1.860233064889254759e-03 2.170099026360818029e-03
1.244366901634485514e-18 6.480727760874916603e-04 1.300687032307185596e-03 1.927166311094065778e-03 2.480310753185673012e-03 2.893465368481037796e-03
1.555458627043106893e-18 8.100909701093645483e-04 1.625858790383981995e-03 2.408957888867582168e-03 3.100388441482091265e-03 3.616831710601257563e-03
1.866550352451728272e-18 9.721091641312375447e-04 1.951030548460778394e-03 2.890749466641098775e-03 3.720466129778509518e-03 4.340198052721479065e-03
2.177642077860349650e-18 1.134127358153110433e-03 2.276202306537574577e-03 3.372541044414614948e-03 4.340543818074927770e-03 5.063564394841699699e-03
2.488733803268971029e-18 1.296145552174983321e-03 2.601374064614371193e-03 3.854332622188131555e-03 4.960621506371346023e-03 5.786930736961919466e-03
2.799825528677592407e-18 1.458163746196856209e-03 2.926545822691167809e-03 4.336124199961648162e-03 5.580699194667764276e-03 6.510297079082139234e-03
3.110917254086213786e-18 1.620181940218729097e-03 3.251717580767963991e-03 4.817915777735164336e-03 6.200776882964182529e-03 7.233663421202359001e-03
3.422008979494835165e-18 1.782200134240601985e-03 3.576889338844760173e-03 5.299707355508680509e-03 6.820854571260600782e-03 7.957029763322579635e-03
3.733100704903456543e-18 1.944218328262475089e-03 3.902061096921556789e-03 5.781498933282197550e-03 7.440932259557019035e-03 8.680396105442798535e-03
4.044192430312077922e-18 2.106236522284347761e-03 4.227232854998353405e-03 6.263290511055713723e-03 8.061009947853437288e-03 9.403762447563017435e-03
4.355284155720699300e-18 2.268254716306220865e-03 4.552404613075149153e-03 6.745082088829229897e-03 8.681087636149855541e-03 1.012712878968323807e-02
4.666375881129320679e-18 2.430272910328093536e-03 4.877576371151945769e-03 7.226873666602746937e-03 9.301165324446273794e-03 1.085049513180345697e-02
0.000000000000000000e+00 0.000000000000000000e+00 0.000000000000000000e+00 0.000000000000000000e+00 0.000000000000000000e+00 1.561680461551279274e-16
3.110917254086213786e-19 1.620181940218729151e-04 3.251717580767963991e-04 4.817915777735164444e-04 6.200776882964182529e-04 7.233663421203767596e-04
6.221834508172427572e-19 3.240363880437458302e-04 6.503435161535927982e-04 9.635831555470328888e-04 1.240155376592836506e-03 1.446732684240597177e-03
9.332751762258641358e-19 4.860545820656187723e-04 9.755152742303891972e-04 1.445374733320549387e-03 1.860233064889254759e-03 2.170099026360818029e-03
1.244366901634485514e-18 6.480727760874916603e-04 1.300687032307185596e-03 1.927166311094065778e-03 2.480310753185673012e-03 2.893465368481037796e-03
1.555458627043106893e-18 8.100909701093645483e-04 1.625858790383981995e-03 2.408957888867582168e-03 3.100388441482091265e-03 3.616831710601257563e-03
1.866550352451728272e-18 9.721091641312375447e-04 1.951030548460778394e-03 2.890749466641098775e-03 3.720466129778509518e-03 4.340198052721478197e-03
2.177642077860349650e-18 1.134127358153110433e-03 2.276202306537574577e-03 3.372541044414614948e-03 4.340543818074927770e-03 5.063564394841698832e-03
2.488733803268971029e-18 1.296145552174983321e-03 2.601374064614371193e-03 3.854332622188131555e-03 4.960621506371346023e-03 5.786930736961919466e-03
2.799825528677592407e-18 1.458163746196856209e-03 2.926545822691167809e-03 4.336124199961648162e-03 5.580699194667764276e-03 6.510297079082139234e-03
3.110917254086213786e-18 1.620181940218729097e-03 3.251717580767963991e-03 4.817915777735164336e-03 6.200776882964182529e-03 7.233663421202359001e-03
3.422008979494835165e-18 1.782200134240601985e-03 3.576889338844760173e-03 5.299707355508680509e-03 6.820854571260600782e-03 7.957029763322579635e-03
3.733100704903456543e-18 1.944218328262475089e-03 3.902061096921556789e-03 5.781498933282197550e-03 7.440932259557019035e-03 8.680396105442800270e-03
4.044192430312077922e-18 2.106236522284347761e-03 4.227232854998353405e-03 6.263290511055713723e-03 8.061009947853437288e-03 9.403762447563019169e-03
4.355284155720699300e-18 2.268254716306220865e-03 4.552404613075149153e-03 6.745082088829229897e-03 8.681087636149855541e-03 1.012712878968323807e-02
4.666375881129320679e-18 2.430272910328093536e-03 4.877576371151945769e-03 7.226873666602746937e-03 9.301165324446273794e-03 1.085049513180345697e-02
0.000000000000000000e+00 0.000000000000000000e+00 0.000000000000000000e+00 0.000000000000000000e+00 0.000000000000000000e+00 1.577235047821710366e-16
3.110917254086213786e-19 1.620181940218729151e-04 3.251717580767963991e-04 4.817915777735164444e-04 6.200776882964182529e-04 7.233663421203767596e-04
6.221834508172427572e-19 3.240363880437458302e-04 6.503435161535927982e-04 9.635831555470328888e-04 1.240155376592836506e-03 1.446732684240597611e-03
9.332751762258641358e-19 4.860545820656187723e-04 9.755152742303891972e-04 1.445374733320549387e-03 1.860233064889254759e-03 2.170099026360817161e-03
1.244366901634485514e-18 6.480727760874916603e-04 1.300687032307185596e-03 1.927166311094065778e-03 2.480310753185673012e-03 2.893465368481037362e-03
1.555458627043106893e-18 8.100909701093645483e-04 1.625858790383981995e-03 2.408957888867582168e-03 3.100388441482091265e-03 3.616831710601257563e-03
1.866550352451728272e-18 9.721091641312375447e-04 1.951030548460778394e-03 2.890749466641098775e-03 3.720466129778509518e-03 4.340198052721478197e-03
2.177642077860349650e-18 1.134127358153110433e-03 2.276202306537574577e-03 3.372541044414614948e-03 4.340543818074927770e-03 5.063564394841698832e-03
2.488733803268971029e-18 1.296145552174983321e-03 2.601374064614371193e-03 3.854332622188131555e-03 4.960621506371346023e-03 5.786930736961919466e-03
2.799825528677592407e-18 1.458163746196856209e-03 2.926545822691167809e-03 4.336124199961648162e-03 5.580699194667764276e-03 6.510297079082139234e-03
3.110917254086213786e-18 1.620181940218729097e-03 3.251717580767963991e-03 4.817915777735164336e-03 6.200776882964182529e-03 7.233663421202359001e-03
3.422008979494835165e-18 1.782200134240601985e-03 3.576889338844760173e-03 5.299707355508680509e-03 6.820854571260600782e-03 7.957029763322579635e-03
3.733100704903456543e-18 1.944218328262475089e-03 3.902061096921556789e-03 5.781498933282197550e-03 7.440932259557019035e-03 8.680396105442800270e-03
4.044192430312077922e-18 2.106236522284347761e-03 4.227232854998353405e-03 6.263290511055713723e-03 8.061009947853437288e-03 9.403762447563019169e-03
4.355284155720699300e-18 2.268254716306220865e-03 4.552404613075149153e-03 6.745082088829229897e-03 8.681087636149855541e-03 1.012712878968323807e-02
4.666375881129320679e-18 2.430272910328093536e-03 4.877576371151945769e-03 7.226873666602746937e-03 9.301165324446273794e-03 1.085049513180345697e-02
0.000000000000000000e+00 0.000000000000000000e+00 0.000000000000000000e+00 0.000000000000000000e+00 0.000000000000000000e+00 1.571013213313538078e-16
3.110917254086213786e-19 1.620181940218729151e-04 3.251717580767963991e-04 4.817915777735164444e-04 6.200776882964182529e-04 7.233663421203761091e-04
6.221834508172427572e-19 3.240363880437458302e-04 6.503435161535927982e-04 9.635831555470328888e-04 1.240155376592836506e-03 1.446732684240596527e-03
9.332751762258641358e-19 4.860545820656187723e-04 9.755152742303891972e-04 1.445374733320549387e-03 1.860233064889254759e-03 2.170099026360818029e-03
1.244366901634485514e-18 6.480727760874916603e-04 1.300687032307185596e-03 1.927166311094065778e-03 2.480310753185673012e-03 2.893465368481037362e-03
1.555458627043106893e-18 8.100909701093645483e-04 1.625858790383981995e-03 2.408957888867582168e-03 3.100388441482091265e-03 3.616831710601257563e-03
1.866550352451728272e-18 9.721091641312375447e-04 1.951030548460778394e-03 2.890749466641098775e-03 3.720466129778509518e-03 4.340198052721479065e-03
2.177642077860349650e-18 1.134127358153110433e-03 2.276202306537574577e-03 3.372541044414614948e-03 4.340543818074927770e-03 5.063564394841698832e-03
2.488733803268971029e-18 1.296145552174983321e-03 2.601374064614371193e-03 3.854332622188131555e-03 4.960621506371346023e-03 5.786930736961919466e-03
2.799825528677592407e-18 1.458163746196856209e-03 2.926545822691167809e-03 4.336124199961648162e-03 5.580699194667764276e-03 6.510297079082139234e-03
3.110917254086213786e-18 1.620181940218729097e-03 3.251717580767963991e-03 4.817915777735164336e-03 6.200776882964182529e-03 7.233663421202359001e-03
3.422008979494835165e-18 1.782200134240601985e-03 3.576889338844760173e-03 5.299707355508680509e-03 6.820854571260600782e-03 7.957029763322579635e-03
3.733100704903456543e-18 1.944218328262475089e-03 3.902061096921556789e-03 5.781498933282197550e-03 7.440932259557019035e-03 8.680396105442800270e-03
4.044192430312077922e-18 2.106236522284347761e-03 4.227232854998353405e-03 6.263290511055713723e-03 8.061009947853437288e-03 9.403762447563019169e-03
4.355284155720699300e-18 2.268254716306220865e-03 4.552404613075149153e-03 6.745082088829229897e-03 8.681087636149855541e-03 1.012712878968323980e-02
4.666375881129320679e-18 2.430272910328093536e-03 4.877576371151945769e-03 7.226873666602746937e-03 9.301165324446273794e-03 1.085049513180345697e-02
0.000000000000000000e+00 0.000000000000000000e+00 0.000000000000000000e+00 0.000000000000000000e+00 0.000000000000000000e+00 1.571013213313538078e-16
3.110917254086213786e-19 1.620181940218729151e-04 3.251717580767963991e-04 4.817915777735164444e-04 6.200776882964182529e-04 7.233663421203770849e-04
6.221834508172427572e-19 3.240363880437458302e-04 6.503435161535927982e-04 9.635831555470328888e-04 1.240155376592836506e-03 1.446732684240596744e-03
9.332751762258641358e-19 4.860545820656187723e-04 9.755152742303891972e-04 1.445374733320549387e-03 1.860233064889254759e-03 2.170099026360817161e-03
1.244366901634485514e-18 6.480727760874916603e-04 1.300687032307185596e-03 1.927166311094065778e-03 2.480310753185673012e-03 2.893465368481036928e-03
1.555458627043106893e-18 8.100909701093645483e-04 1.625858790383981995e-03 2.408957888867582168e-03 3.100388441482091265e-03 3.616831710601257129e-03
1.866550352451728272e-18 9.721091641312375447e-04 1.951030548460778394e-03 2.890749466641098775e-03 3.720466129778509518e-03 4.340198052721478197e-03
2.177642077860349650e-18 1.134127358153110433e-03 2.276202306537574577e-03 3.372541044414614948e-03 4.340543818074927770e-03 5.063564394841697965e-03
2.488733803268971029e-18 1.296145552174983321e-03 2.601374064614371193e-03 3.854332622188131555e-03 4.960621506371346023e-03 5.786930736961917732e-03
2.799825528677592407e-18 1.458163746196856209e-03 2.926545822691167809e-03 4.336124199961648162e-03 5.580699194667764276e-03 6.510297079082139234e-03
3.110917254086213786e-18 1.620181940218729097e-03 3.251717580767963991e-03 4.817915777735164336e-03 6.200776882964182529e-03 7.233663421202359001e-03
3.422008979494835165e-18 1.782200134240601985e-03 3.576889338844760173e-03 5.299707355508680509e-03 6.820854571260600782e-03 7.957029763322579635e-03
3.733100704903456543e-18 1.944218328262475089e-03 3.902061096921556789e-03 5.781498933282197550e-03 7.440932259557019035e-03 8.680396105442800270e-03
4.044192430312077922e-18 2.106236522284347761e-03 4.227232854998353405e-03 6.263290511055713723e-03 8.061009947853437288e-03 9.403762447563019169e-03
4.355284155720699300e-18 2.268254716306220865e-03 4.552404613075149153e-03 6.745082088829229897e-03 8.681087636149855541e-03 1.012712878968323980e-02
4.666375881129320679e-18 2.430272910328093536e-03 4.877576371151945769e-03 7.226873666602746937e-03 9.301165324446273794e-03 1.085049513180345697e-02
0.000000000000000000e+00 0.000000000000000000e+00 0.000000000000000000e+00 0.000000000000000000e+00 0.000000000000000000e+00 1.583456882329882902e-16
3.110917254086213786e-19 1.620181940218729151e-04 3.251717580767963991e-04 4.817915777735164444e-04 6.200776882964182529e-04 7.233663421203777354e-04
6.221834508172427572e-19 3.240363880437458302e-04 6.503435161535927982e-04 9.635831555470328888e-04 1.240155376592836506e-03 1.446732684240597611e-03
9.332751762258641358e-19 4.860545820656187723e-04 9.755152742303891972e-04 1.445374733320549387e-03 1.860233064889254759e-03 2.170099026360817161e-03
1.244366901634485514e-18 6.480727760874916603e-04 1.300687032307185596e-03 1.927166311094065778e-03 2.480310753185673012e-03 2.893465368481037796e-03
1.555458627043106893e-18 8.100909701093645483e-04 1.625858790383981995e-03 2.408957888867582168e-03 3.100388441482091265e-03 3.616831710601257129e-03
1.866550352451728272e-18 9.721091641312375447e-04 1.951030548460778394e-03 2.890749466641098775e-03 3.720466129778509518e-03 4.340198052721478197e-03
2.177642077860349650e-18 1.134127358153110433e-03 2.276202306537574577e-03 3.372541044414614948e-03 4.340543818074927770e-03 5.063564394841697965e-03
2.488733803268971029e-18 1.296145552174983321e-03 2.601374064614371193e-03 3.854332622188131555e-03 4.960621506371346023e-03 5.786930736961917732e-03
2.799825528677592407e-18 1.458163746196856209e-03 2.926545822691167809e-03 4.336124199961648162e-03 5.580699194667764276e-03 6.510297079082138366e-03
3.110917254086213786e-18 1.620181940218729097e-03 3.251717580767963991e-03 4.817915777735164336e-03 6.200776882964182529e-03 7.233663421202359001e-03
3.422008979494835165e-18 1.782200134240601985e-03 3.576889338844760173e-03 5.299707355508680509e-03 6.820854571260600782e-03 7.957029763322579635e-03
3.733100704903456543e-18 1.944218328262475089e-03 3.902061096921556789e-03 5.781498933282197550e-03 7.440932259557019035e-03 8.680396105442800270e-03
4.044192430312077922e-18 2.106236522284347761e-03 4.227232854998353405e-03 6.263290511055713723e-03 8.061009947853437288e-03 9.403762447563019169e-03
4.355284155720699300e-18 2.268254716306220865e-03 4.552404613075149153e-03 6.745082088829229897e-03 8.681087636149855541e-03 1.012712878968323980e-02
4.666375881129320679e-18 2.430272910328093536e-03 4.877576371151945769e-03 7.226873666602746937e-03 9.301165324446273794e-03 1.085049513180345870e-02
0.000000000000000000e+00 0.000000000000000000e+00 0.000000000000000000e+00 0.000000000000000000e+00 0.000000000000000000e+00 1.592789634092141458e-16
3.110917254086213786e-19 1.620181940218729151e-04 3.251717580767963991e-04 4.817915777735164444e-04 6.200776882964182529e-04 7.233663421203780607e-04
6.221834508172427572e-19 3.240363880437458302e-04 6.503435161535927982e-04 9.635831555470328888e-04 1.240155376592836506e-03 1.446732684240597611e-03
9.332751762258641358e-19 4.860545820656187723e-04 9.755152742303891972e-04 1.445374733320549387e-03 1.860233064889254759e-03 2.170099026360817161e-03
1.244366901634485514e-18 6.480727760874916603e-04 1.300687032307185596e-03 1.927166311094065778e-03 2.480310753185673012e-03 2.893465368481036928e-03
1.555458627043106893e-18 8.100909701093645483e-04 1.625858790383981995e-03 2.408957888867582168e-03 3.100388441482091265e-03 3.616831710601256696e-03
1.866550352451728272e-18 9.721091641312375447e-04 1.951030548460778394e-03 2.890749466641098775e-03 3.720466129778509518e-03 4.340198052721477330e-03
2.177642077860349650e-18 1.134127358153110433e-03 2.276202306537574577e-03 3.372541044414614948e-03 4.340543818074927770e-03 5.063564394841697097e-03
2.488733803268971029e-18 1.296145552174983321e-03 2.601374064614371193e-03 3.854332622188131555e-03 4.960621506371346023e-03 5.786930736961918599e-03
2.799825528677592407e-18 1.458163746196856209e-03 2.926545822691167809e-03 4.336124199961648162e-03 5.580699194667764276e-03 6.510297079082139234e-03
3.110917254086213786e-18 1.620181940218729097e-03 3.251717580767963991e-03 4.817915777735164336e-03 6.200776882964182529e-03 7.233663421202359001e-03
3.422008979494835165e-18 1.782200134240601985e-03 3.576889338844760173e-03 5.299707355508680509e-03 6.820854571260600782e-03 7.957029763322579635e-03
3.733100704903456543e-18 1.944218328262475089e-03 3.902061096921556789e-03 5.781498933282197550e-03 7.440932259557019035e-03 8.680396105442800270e-03
4.044192430312077922e-18 2.106236522284347761e-03 4.227232854998353405e-03 6.263290511055713723e-03 8.061009947853437288e-03 9.403762447563019169e-03
4.355284155720699300e-18 2.268254716306220865e-03 4.552404613075149153e-03 6.745082088829229897e-03 8.681087636149855541e-03 1.012712878968323980e-02
4.666375881129320679e-18 2.430272910328093536e-03 4.877576371151945769e-03 7.226873666602746937e-03 9.301165324446273794e-03 1.085049513180345870e-02
0.000000000000000000e+00 0.000000000000000000e+00 0.000000000000000000e+00 0.000000000000000000e+00 0.000000000000000000e+00 1.586567799583968923e-16
3.110917254086213786e-19 1.620181940218729151e-04 3.251717580767963991e-04 4.817915777735164444e-04 6.200776882964182529e-04 7.233663421203786028e-04
6.221834508172427572e-19 3.240363880437458302e-04 6.503435161535927982e-04 9.635831555470328888e-04 1.240155376592836506e-03 1.446732684240597611e-03
9.332751762258641358e-19 4.860545820656187723e-04 9.755152742303891972e-04 1.445374733320549387e-03 1.860233064889254759e-03 2.170099026360817161e-03
1.244366901634485514e-18 6.480727760874916603e-04 1.300687032307185596e-03 1.927166311094065778e-03 2.480310753185673012e-03 2.893465368481036061e-03
1.555458627043106893e-18 8.100909701093645483e-04 1.625858790383981995e-03 2.408957888867582168e-03 3.100388441482091265e-03 3.616831710601256262e-03
1.866550352451728272e-18 9.721091641312375447e-04 1.951030548460778394e-03 2.890749466641098775e-03 3.720466129778509518e-03 4.340198052721477330e-03
2.177642077860349650e-18 1.134127358153110433e-03 2.276202306537574577e-03 3.372541044414614948e-03 4.340543818074927770e-03 5.063564394841697097e-03
2.488733803268971029e-18 1.296145552174983321e-03 2.601374064614371193e-03 3.854332622188131555e-03 4.960621506371346023e-03 5.786930736961916864e-03
2.799825528677592407e-18 1.458163746196856209e-03 2.926545822691167809e-03 4.336124199961648162e-03 5.580699194667764276e-03 6.510297079082137499e-03
3.110917254086213786e-18 1.620181940218729097e-03 3.251717580767963991e-03 4.817915777735164336e-03 6.200776882964182529e-03 7.233663421202357266e-03
3.422008979494835165e-18 1.782200134240601985e-03 3.576889338844760173e-03 5.299707355508680509e-03 6.820854571260600782e-03 7.957029763322579635e-03
3.733100704903456543e-18 1.944218328262475089e-03 3.902061096921556789e-03 5.781498933282197550e-03 7.440932259557019035e-03 8.680396105442800270e-03
4.044192430312077922e-18 2.106236522284347761e-03 4.227232854998353405e-03 6.263290511055713723e-03 8.061009947853437288e-03 9.403762447563019169e-03
4.355284155720699300e-18 2.268254716306220865e-03 4.552404613075149153e-03 6.745082088829229897e-03 8.681087636149855541e-03 1.012712878968323980e-02
4.666375881129320679e-18 2.430272910328093536e-03 4.877576371151945769e-03 7.226873666602746937e-03 9.301165324446273794e-03 1.085049513180345697e-02
0.000000000000000000e+00 0.000000000000000000e+00 0.000000000000000000e+00 0.000000000000000000e+00 0.000000000000000000e+00 1.592789634092141458e-16
3.110917254086213786e-19 1.620181940218729151e-04 3.251717580767963991e-04 4.817915777735164444e-04 6.200776882964182529e-04 7.233663421203786028e-04
6.221834508172427572e-19 3.240363880437458302e-04 6.503435161535927982e-04 9.635831555470328888e-04 1.240155376592836506e-03 1.446732684240598912e-03
9.332751762258641358e-19 4.860545820656187723e-04 9.755152742303891972e-04 1.445374733320549387e-03 1.860233064889254759e-03 2.170099026360818029e-03
1.244366901634485514e-18 6.480727760874916603e-04 1.300687032307185596e-03 1.927166311094065778e-03 2.480310753185673012e-03 2.893465368481037362e-03
1.555458627043106893e-18 8.100909701093645483e-04 1.625858790383981995e-03 2.408957888867582168e-03 3.100388441482091265e-03 3.616831710601256696e-03
1.866550352451728272e-18 9.721091641312375447e-04 1.951030548460778394e-03 2.890749466641098775e-03 3.720466129778509518e-03 4.340198052721477330e-03
2.177642077860349650e-18 1.134127358153110433e-03 2.276202306537574577e-03 3.372541044414614948e-03 4.340543818074927770e-03 5.063564394841697965e-03
2.488733803268971029e-18 1.296145552174983321e-03 2.601374064614371193e-03 3.854332622188131555e-03 4.960621506371346023e-03 5.786930736961916864e-03
2.799825528677592407e-18 1.458163746196856209e-03 2.926545822691167809e-03 4.336124199961648162e-03 5.580699194667764276e-03 6.510297079082136631e-03
3.110917254086213786e-18 1.620181940218729097e-03 3.251717580767963991e-03 4.817915777735164336e-03 6.200776882964182529e-03 7.233663421202358133e-03
3.422008979494835165e-18 1.782200134240601985e-03 3.576889338844760173e-03 5.299707355508680509e-03 6.820854571260600782e-03 7.957029763322579635e-03
3.733100704903456543e-18 1.944218328262475089e-03 3.902061096921556789e-03 5.781498933282197550e-03 7.440932259557019035e-03 8.680396105442800270e-03
4.044192430312077922e-18 2.106236522284347761e-03 4.227232854998353405e-03 6.263290511055713723e-03 8.061009947853437288e-03 9.403762447563019169e-03
4.355284155720699300e-18 2.268254716306220865e-03 4.552404613075149153e-03 6.745082088829229897e-03 8.681087636149855541e-03 1.012712878968323807e-02
4.666375881129320679e-18 2.430272910328093536e-03 4.877576371151945769e-03 7.226873666602746937e-03 9.301165324446273794e-03 1.085049513180345870e-02
0.000000000000000000e+00 0.000000000000000000e+00 0.000000000000000000e+00 0.000000000000000000e+00 0.000000000000000000e+00 1.589678716838055191e-16
3.110917254086213786e-19 1.620181940218729151e-04 3.251717580767963991e-04 4.817915777735164444e-04 6.200776882964182529e-04 7.233663421203792533e-04
6.221834508172427572e-19 3.240363880437458302e-04 6.503435161535927982e-04 9.635831555470328888e-04 1.240155376592836506e-03 1.446732684240598912e-03
9.332751762258641358e-19 4.860545820656187723e-04 9.755152742303891972e-04 1.445374733320549387e-03 1.860233064889254759e-03 2.170099026360818029e-03
1.244366901634485514e-18 6.480727760874916603e-04 1.300687032307185596e-03 1.927166311094065778e-03 2.480310753185673012e-03 2.893465368481037362e-03
1.555458627043106893e-18 8.100909701093645483e-04 1.625858790383981995e-03 2.408957888867582168e-03 3.100388441482091265e-03 3.616831710601256262e-03
1.866550352451728272e-18 9.721091641312375447e-04 1.951030548460778394e-03 2.890749466641098775e-03 3.720466129778509518e-03 4.340198052721477330e-03
2.177642077860349650e-18 1.134127358153110433e-03 2.276202306537574577e-03 3.372541044414614948e-03 4.340543818074927770e-03 5.063564394841697097e-03
2.488733803268971029e-18 1.296145552174983321e-03 2.601374064614371193e-03 3.854332622188131555e-03 4.960621506371346023e-03 5.786930736961917732e-03
2.799825528677592407e-18 1.458163746196856209e-03 2.926545822691167809e-03 4.336124199961648162e-03 5.580699194667764276e-03 6.510297079082137499e-03
3.110917254086213786e-18 1.620181940218729097e-03 3.251717580767963991e-03 4.817915777735164336e-03 6.200776882964182529e-03 7.233663421202357266e-03
3.422008979494835165e-18 1.782200134240601985e-03 3.576889338844760173e-03 5.299707355508680509e-03 6.820854571260600782e-03 7.957029763322577900e-03
3.733100704903456543e-18 1.944218328262475089e-03 3.902061096921556789e-03 5.781498933282197550e-03 7.440932259557019035e-03 8.680396105442800270e-03
4.044192430312077922e-18 2.106236522284347761e-03 4.227232854998353405e-03 6.263290511055713723e-03 8.061009947853437288e-03 9.403762447563019169e-03
4.355284155720699300e-18 2.268254716306220865e-03 4.552404613075149153e-03 6.745082088829229897e-03 8.681087636149855541e-03 1.012712878968323980e-02
4.666375881129320679e-18 2.430272910328093536e-03 4.877576371151945769e-03 7.226873666602746937e-03 9.301165324446273794e-03 1.085049513180345870e-02
0.000000000000000000e+00 0.000000000000000000e+00 0.000000000000000000e+00 0.000000000000000000e+00 0.000000000000000000e+00 1.592789634092141458e-16
3.110917254086213786e-19 1.620181940218729151e-04 3.251717580767963991e-04 4.817915777735164444e-04 6.200776882964182529e-04 7.233663421203789280e-04
6.221834508172427572e-19 3.240363880437458302e-04 6.503435161535927982e-04 9.635831555470328888e-04 1.240155376592836506e-03 1.446732684240598695e-03
9.332751762258641358e-19 4.860545820656187723e-04 9.755152742303891972e-04 1.445374733320549387e-03 1.860233064889254759e-03 2.170099026360818462e-03
1.244366901634485514e-18 6.480727760874916603e-04 1.300687032307185596e-03 1.927166311094065778e-03 2.480310753185673012e-03 2.893465368481037362e-03
1.555458627043106893e-18 8.100909701093645483e-04 1.625858790383981995e-03 2.408957888867582168e-03 3.100388441482091265e-03 3.616831710601256696e-03
1.866550352451728272e-18 9.721091641312375447e-04 1.951030548460778394e-03 2.890749466641098775e-03 3.720466129778509518e-03 4.340198052721477330e-03
2.177642077860349650e-18 1.134127358153110433e-03 2.276202306537574577e-03 3.372541044414614948e-03 4.340543818074927770e-03 5.063564394841696230e-03
2.488733803268971029e-18 1.296145552174983321e-03 2.601374064614371193e-03 3.854332622188131555e-03 4.960621506371346023e-03 5.786930736961916864e-03
2.799825528677592407e-18 1.458163746196856209e-03 2.926545822691167809e-03 4.336124199961648162e-03 5.580699194667764276e-03 6.510297079082137499e-03
3.110917254086213786e-18 1.620181940218729097e-03 3.251717580767963991e-03 4.817915777735164336e-03 6.200776882964182529e-03 7.233663421202357266e-03
3.422008979494835165e-18 1.782200134240601985e-03 3.576889338844760173e-03 5.299707355508680509e-03 6.820854571260600782e-03 7.957029763322577900e-03
3.733100704903456543e-18 1.944218328262475089e-03 3.902061096921556789e-03 5.781498933282197550e-03 7.440932259557019035e-03 8.680396105442800270e-03
4.044192430312077922e-18 2.106236522284347761e-03 4.227232854998353405e-03 6.263290511055713723e-03 8.061009947853437288e-03 9.403762447563019169e-03
4.355284155720699300e-18 2.268254716306220865e-03 4.552404613075149153e-03 6.745082088829229897e-03 8.681087636149855541e-03 1.012712878968323980e-02
4.666375881129320679e-18 2.430272910328093536e-03 4.877576371151945769e-03 7.226873666602746937e-03 9.301165324446273794e-03 1.085049513180345870e-02
0.000000000000000000e+00 0.000000000000000000e+00 0.000000000000000000e+00 0.000000000000000000e+00 0.000000000000000000e+00 1.592789634092141458e-16
3.110917254086213786e-19 1.620181940218729151e-04 3.251717580767963991e-04 4.817915777735164444e-04 6.200776882964182529e-04 7.233663421203782775e-04
6.221834508172427572e-19 3.240363880437458302e-04 6.503435161535927982e-04 9.635831555470328888e-04 1.240155376592836506e-03 1.446732684240598695e-03
9.332751762258641358e-19 4.860545820656187723e-04 9.755152742303891972e-04 1.445374733320549387e-03 1.860233064889254759e-03 2.170099026360818029e-03
1.244366901634485514e-18 6.480727760874916603e-04 1.300687032307185596e-03 1.927166311094065778e-03 2.480310753185673012e-03 2.893465368481037796e-03
1.555458627043106893e-18 8.100909701093645483e-04 1.625858790383981995e-03 2.408957888867582168e-03 3.100388441482091265e-03 3.616831710601257129e-03
1.866550352451728272e-18 9.721091641312375447e-04 1.951030548460778394e-03 2.890749466641098775e-03 3.720466129778509518e-03 4.340198052721477330e-03
2.177642077860349650e-18 1.134127358153110433e-03 2.276202306537574577e-03 3.372541044414614948e-03 4.340543818074927770e-03 5.063564394841697097e-03
2.488733803268971029e-18 1.296145552174983321e-03 2.601374064614371193e-03 3.854332622188131555e-03 4.960621506371346023e-03 5.786930736961917732e-03
2.799825528677592407e-18 1.458163746196856209e-03 2.926545822691167809e-03 4.336124199961648162e-03 5.580699194667764276e-03 6.510297079082137499e-03
3.110917254086213786e-18 1.620181940218729097e-03 3.251717580767963991e-03 4.817915777735164336e-03 6.200776882964182529e-03 7.233663421202357266e-03
3.422008979494835165e-18 1.782200134240601985e-03 3.576889338844760173e-03 5.299707355508680509e-03 6.820854571260600782e-03 7.957029763322577900e-03
3.733100704903456543e-18 1.944218328262475089e-03 3.902061096921556789e-03 5.781498933282197550e-03 7.440932259557019035e-03 8.680396105442798535e-03
4.044192430312077922e-18 2.106236522284347761e-03 4.227232854998353405e-03 6.263290511055713723e-03 8.061009947853437288e-03 9.403762447563017435e-03
4.355284155720699300e-18 2.268254716306220865e-03 4.552404613075149153e-03 6.745082088829229897e-03 8.681087636149855541e-03 1.012712878968323980e-02
4.666375881129320679e-18 2.430272910328093536e-03 4.877576371151945769e-03 7.226873666602746937e-03 9.301165324446273794e-03 1.085049513180345870e-02
0.000000000000000000e+00 0.000000000000000000e+00 0.000000000000000000e+00 0.000000000000000000e+00 0.000000000000000000e+00 1.595900551346227726e-16
3.110917254086213786e-19 1.620181940218729151e-04 3.251717580767963991e-04 4.817915777735164444e-04 6.200776882964182529e-04 7.233663421203792533e-04
6.221834508172427572e-19 3.240363880437458302e-04 6.503435161535927982e-04 9.635831555470328888e-04 1.240155376592836506e-03 1.446732684240599563e-03
9.332751762258641358e-19 4.860545820656187723e-04 9.755152742303891972e-04 1.445374733320549387e-03 1.860233064889254759e-03 2.170099026360819330e-03
1.244366901634485514e-18 6.480727760874916603e-04 1.300687032307185596e-03 1.927166311094065778e-03 2.480310753185673012e-03 2.893465368481039097e-03
1.555458627043106893e-18 8.100909701093645483e-04 1.625858790383981995e-03 2.408957888867582168e-03 3.100388441482091265e-03 3.616831710601257563e-03
1.866550352451728272e-18 9.721091641312375447e-04 1.951030548460778394e-03 2.890749466641098775e-03 3.720466129778509518e-03 4.340198052721477330e-03
2.177642077860349650e-18 1.134127358153110433e-03 2.276202306537574577e-03 3.372541044414614948e-03 4.340543818074927770e-03 5.063564394841697097e-03
2.488733803268971029e-18 1.296145552174983321e-03 2.601374064614371193e-03 3.854332622188131555e-03 4.960621506371346023e-03 5.786930736961916864e-03
2.799825528677592407e-18 1.458163746196856209e-03 2.926545822691167809e-03 4.336124199961648162e-03 5.580699194667764276e-03 6.510297079082137499e-03
3.110917254086213786e-18 1.620181940218729097e-03 3.251717580767963991e-03 4.817915777735164336e-03 6.200776882964182529e-03 7.233663421202357266e-03
3.422008979494835165e-18 1.782200134240601985e-03 3.576889338844760173e-03 5.299707355508680509e-03 6.820854571260600782e-03 7.957029763322577900e-03
3.733100704903456543e-18 1.944218328262475089e-03 3.902061096921556789e-03 5.781498933282197550e-03 7.440932259557019035e-03 8.680396105442798535e-03
4.044192430312077922e-18 2.106236522284347761e-03 4.227232854998353405e-03 6.263290511055713723e-03 8.061009947853437288e-03 9.403762447563019169e-03
4.355284155720699300e-18 2.268254716306220865e-03 4.552404613075149153e-03 6.745082088829229897e-03 8.681087636149855541e-03 1.012712878968323980e-02
4.666375881129320679e-18 2.430272910328093536e-03 4.877576371151945769e-03 7.226873666602746937e-03 9.301165324446273794e-03 1.085049513180345870e-02
0.000000000000000000e+00 0.000000000000000000e+00 0.000000000000000000e+00 0.000000000000000000e+00 0.000000000000000000e+00 1.592789634092141458e-16
3.110917254086213786e-19 1.620181940218729151e-04 3.251717580767963991e-04 4.817915777735164444e-04 6.200776882964182529e-04 7.233663421203795785e-04
6.221834508172427572e-19 3.240363880437458302e-04 6.503435161535927982e-04 9.635831555470328888e-04 1.240155376592836506e-03 1.446732684240599346e-03
9.332751762258641358e-19 4.860545820656187723e-04 9.755152742303891972e-04 1.445374733320549387e-03 1.860233064889254759e-03 2.170099026360820197e-03
1.244366901634485514e-18 6.480727760874916603e-04 1.300687032307185596e-03 1.927166311094065778e-03 2.480310753185673012e-03 2.893465368481038229e-03
1.555458627043106893e-18 8.100909701093645483e-04 1.625858790383981995e-03 2.408957888867582168e-03 3.100388441482091265e-03 3.616831710601258430e-03
1.866550352451728272e-18 9.721091641312375447e-04 1.951030548460778394e-03 2.890749466641098775e-03 3.720466129778509518e-03 4.340198052721479065e-03
2.177642077860349650e-18 1.134127358153110433e-03 2.276202306537574577e-03 3.372541044414614948e-03 4.340543818074927770e-03 5.063564394841697097e-03
2.488733803268971029e-18 1.296145552174983321e-03 2.601374064614371193e-03 3.854332622188131555e-03 4.960621506371346023e-03 5.786930736961916864e-03
2.799825528677592407e-18 1.458163746196856209e-03 2.926545822691167809e-03 4.336124199961648162e-03 5.580699194667764276e-03 6.510297079082135764e-03
3.110917254086213786e-18 1.620181940218729097e-03 3.251717580767963991e-03 4.817915777735164336e-03 6.200776882964182529e-03 7.233663421202356399e-03
3.422008979494835165e-18 1.782200134240601985e-03 3.576889338844760173e-03 5.299707355508680509e-03 6.820854571260600782e-03 7.957029763322577900e-03
3.733100704903456543e-18 1.944218328262475089e-03 3.902061096921556789e-03 5.781498933282197550e-03 7.440932259557019035e-03 8.680396105442798535e-03
4.044192430312077922e-18 2.106236522284347761e-03 4.227232854998353405e-03 6.263290511055713723e-03 8.061009947853437288e-03 9.403762447563017435e-03
4.355284155720699300e-18 2.268254716306220865e-03 4.552404613075149153e-03 6.745082088829229897e-03 8.681087636149855541e-03 1.012712878968323980e-02
4.666375881129320679e-18 2.430272910328093536e-03 4.877576371151945769e-03 7.226873666602746937e-03 9.301165324446273794e-03 1.085049513180345870e-02
0.000000000000000000e+00 0.000000000000000000e+00 0.000000000000000000e+00 0.000000000000000000e+00 0.000000000000000000e+00 1.592789634092141458e-16
3.110917254086213786e-19 1.620181940218729151e-04 3.251717580767963991e-04 4.817915777735164444e-04 6.200776882964182529e-04 7.233663421203792533e-04
6.221834508172427572e-19 3.240363880437458302e-04 6.503435161535927982e-04 9.635831555470328888e-04 1.240155376592836506e-03 1.446732684240598912e-03
9.332751762258641358e-19 4.860545820656187723e-04 9.755152742303891972e-04 1.445374733320549387e-03 1.860233064889254759e-03 2.170099026360819330e-03
1.244366901634485514e-18 6.480727760874916603e-04 1.300687032307185596e-03 1.927166311094065778e-03 2.480310753185673012e-03 2.893465368481039097e-03
1.555458627043106893e-18 8.100909701093645483e-04 1.625858790383981995e-03 2.408957888867582168e-03 3.100388441482091265e-03 3.616831710601257563e-03
1.866550352451728272e-18 9.721091641312375447e-04 1.951030548460778394e-03 2.890749466641098775e-03 3.720466129778509518e-03 4.340198052721478197e-03
2.177642077860349650e-18 1.134127358153110433e-03 2.276202306537574577e-03 3.372541044414614948e-03 4.340543818074927770e-03 5.063564394841697097e-03
2.488733803268971029e-18 1.296145552174983321e-03 2.601374064614371193e-03 3.854332622188131555e-03 4.960621506371346023e-03 5.786930736961916864e-03
2.799825528677592407e-18 1.458163746196856209e-03 2.926545822691167809e-03 4.336124199961648162e-03 5.580699194667764276e-03 6.510297079082136631e-03
3.110917254086213786e-18 1.620181940218729097e-03 3.251717580767963991e-03 4.817915777735164336e-03 6.200776882964182529e-03 7.233663421202356399e-03
3.422008979494835165e-18 1.782200134240601985e-03 3.576889338844760173e-03 5.299707355508680509e-03 6.820854571260600782e-03 7.957029763322577900e-03
3.733100704903456543e-18 1.944218328262475089e-03 3.902061096921556789e-03 5.781498933282197550e-03 7.440932259557019035e-03 8.680396105442798535e-03
4.044192430312077922e-18 2.106236522284347761e-03 4.227232854998353405e-03 6.263290511055713723e-03 8.061009947853437288e-03 9.403762447563017435e-03
4.355284155720699300e-18 2.268254716306220865e-03 4.552404613075149153e-03 6.745082088829229897e-03 8.681087636149855541e-03 1.012712878968323807e-02
4.666375881129320679e-18 2.430272910328093536e-03 4.877576371151945769e-03 7.226873666602746937e-03 9.301165324446273794e-03 1.085049513180345697e-02
0.000000000000000000e+00 0.000000000000000000e+00 0.000000000000000000e+00 0.000000000000000000e+00 0.000000000000000000e+00 1.595900551346227726e-16
3.110917254086213786e-19 1.620181940218729151e-04 3.251717580767963991e-04 4.817915777735164444e-04 6.200776882964182529e-04 7.233663421203795785e-04
6.221834508172427572e-19 3.240363880437458302e-04 6.503435161535927982e-04 9.635831555470328888e-04 1.240155376592836506e-03 1.446732684240599779e-03
9.332751762258641358e-19 4.860545820656187723e-04 9.755152742303891972e-04 1.445374733320549387e-03 1.860233064889254759e-03 2.170099026360819763e-03
1.244366901634485514e-18 6.480727760874916603e-04 1.300687032307185596e-03 1.927166311094065778e-03 2.480310753185673012e-03 2.893465368481039097e-03
1.555458627043106893e-18 8.100909701093645483e-04 1.625858790383981995e-03 2.408957888867582168e-03 3.100388441482091265e-03 3.616831710601258864e-03
1.866550352451728272e-18 9.721091641312375447e-04 1.951030548460778394e-03 2.890749466641098775e-03 3.720466129778509518e-03 4.340198052721479065e-03
2.177642077860349650e-18 1.134127358153110433e-03 2.276202306537574577e-03 3.372541044414614948e-03 4.340543818074927770e-03 5.063564394841698832e-03
2.488733803268971029e-18 1.296145552174983321e-03 2.601374064614371193e-03 3.854332622188131555e-03 4.960621506371346023e-03 5.786930736961916864e-03
2.799825528677592407e-18 1.458163746196856209e-03 2.926545822691167809e-03 4.336124199961648162e-03 5.580699194667764276e-03 6.510297079082135764e-03
3.110917254086213786e-18 1.620181940218729097e-03 3.251717580767963991e-03 4.817915777735164336e-03 6.200776882964182529e-03 7.233663421202356399e-03
3.422008979494835165e-18 1.782200134240601985e-03 3.576889338844760173e-03 5.299707355508680509e-03 6.820854571260600782e-03 7.957029763322577900e-03
3.733100704903456543e-18 1.944218328262475089e-03 3.902061096921556789e-03 5.781498933282197550e-03 7.440932259557019035e-03 8.680396105442798535e-03
4.044192430312077922e-18 2.106236522284347761e-03 4.227232854998353405e-03 6.263290511055713723e-03 8.061009947853437288e-03 9.403762447563017435e-03
4.355284155720699300e-18 2.268254716306220865e-03 4.552404613075149153e-03 6.745082088829229897e-03 8.681087636149855541e-03 1.012712878968323807e-02
4.666375881129320679e-18 2.430272910328093536e-03 4.877576371151945769e-03 7.226873666602746937e-03 9.301165324446273794e-03 1.085049513180345870e-02
0.000000000000000000e+00 0.000000000000000000e+00 0.000000000000000000e+00 0.000000000000000000e+00 0.000000000000000000e+00 1.599011468600313994e-16
3.110917254086213786e-19 1.620181940218729151e-04 3.251717580767963991e-04 4.817915777735164444e-04 6.200776882964182529e-04 7.233663421203792533e-04
6.221834508172427572e-19 3.240363880437458302e-04 6.503435161535927982e-04 9.635831555470328888e-04 1.240155376592836506e-03 1.446732684240599346e-03
9.332751762258641358e-19 4.860545820656187723e-04 9.755152742303891972e-04 1.445374733320549387e-03 1.860233064889254759e-03 2.170099026360819330e-03
1.244366901634485514e-18 6.480727760874916603e-04 1.300687032307185596e-03 1.927166311094065778e-03 2.480310753185673012e-03 2.893465368481039530e-03
1.555458627043106893e-18 8.100909701093645483e-04 1.625858790383981995e-03 2.408957888867582168e-03 3.100388441482091265e-03 3.616831710601258864e-03
1.866550352451728272e-18 9.721091641312375447e-04 1.951030548460778394e-03 2.890749466641098775e-03 3.720466129778509518e-03 4.340198052721478197e-03
2.177642077860349650e-18 1.134127358153110433e-03 2.276202306537574577e-03 3.372541044414614948e-03 4.340543818074927770e-03 5.063564394841698832e-03
2.488733803268971029e-18 1.296145552174983321e-03 2.601374064614371193e-03 3.854332622188131555e-03 4.960621506371346023e-03 5.786930736961916864e-03
2.799825528677592407e-18 1.458163746196856209e-03 2.926545822691167809e-03 4.336124199961648162e-03 5.580699194667764276e-03 6.510297079082136631e-03
3.110917254086213786e-18 1.620181940218729097e-03 3.251717580767963991e-03 4.817915777735164336e-03 6.200776882964182529e-03 7.233663421202356399e-03
3.422008979494835165e-18 1.782200134240601985e-03 3.576889338844760173e-03 5.299707355508680509e-03 6.820854571260600782e-03 7.957029763322577900e-03
3.733100704903456543e-18 1.944218328262475089e-03 3.902061096921556789e-03 5.781498933282197550e-03 7.440932259557019035e-03 8.680396105442798535e-03
4.044192430312077922e-18 2.106236522284347761e-03 4.227232854998353405e-03 6.263290511055713723e-03 8.061009947853437288e-03 9.403762447563017435e-03
4.355284155720699300e-18 2.268254716306220865e-03 4.552404613075149153e-03 6.745082088829229897e-03 8.681087636149855541e-03 1.012712878968323807e-02
4.666375881129320679e-18 2.430272910328093536e-03 4.877576371151945769e-03 7.226873666602746937e-03 9.301165324446273794e-03 1.085049513180345697e-02
0.000000000000000000e+00 0.000000000000000000e+00 0.000000000000000000e+00 0.000000000000000000e+00 0.000000000000000000e+00 1.586567799583968923e-16
3.110917254086213786e-19 1.620181940218729151e-04 3.251717580767963991e-04 4.817915777735164444e-04 6.200776882964182529e-04 7.233663421203795785e-04
6.221834508172427572e-19 3.240363880437458302e-04 6.503435161535927982e-04 9.635831555470328888e-04 1.240155376592836506e-03 1.446732684240599346e-03
9.332751762258641358e-19 4.860545820656187723e-04 9.755152742303891972e-04 1.445374733320549387e-03 1.860233064889254759e-03 2.170099026360820197e-03
1.244366901634485514e-18 6.480727760874916603e-04 1.300687032307185596e-03 1.927166311094065778e-03 2.480310753185673012e-03 2.893465368481039097e-03
1.555458627043106893e-18 8.100909701093645483e-04 1.625858790383981995e-03 2.408957888867582168e-03 3.100388441482091265e-03 3.616831710601258864e-03
1.866550352451728272e-18 9.721091641312375447e-04 1.951030548460778394e-03 2.890749466641098775e-03 3.720466129778509518e-03 4.340198052721479932e-03
2.177642077860349650e-18 1.134127358153110433e-03 2.276202306537574577e-03 3.372541044414614948e-03 4.340543818074927770e-03 5.063564394841698832e-03
2.488733803268971029e-18 1.296145552174983321e-03 2.601374064614371193e-03 3.854332622188131555e-03 4.960621506371346023e-03 5.786930736961918599e-03
2.799825528677592407e-18 1.458163746196856209e-03 2.926545822691167809e-03 4.336124199961648162e-03 5.580699194667764276e-03 6.510297079082137499e-03
3.110917254086213786e-18 1.620181940218729097e-03 3.251717580767963991e-03 4.817915777735164336e-03 6.200776882964182529e-03 7.233663421202356399e-03
3.422008979494835165e-18 1.782200134240601985e-03 3.576889338844760173e-03 5.299707355508680509e-03 6.820854571260600782e-03 7.957029763322577900e-03
3.733100704903456543e-18 1.944218328262475089e-03 3.902061096921556789e-03 5.781498933282197550e-03 7.440932259557019035e-03 8.680396105442798535e-03
4.044192430312077922e-18 2.106236522284347761e-03 4.227232854998353405e-03 6.263290511055713723e-03 8.061009947853437288e-03 9.403762447563017435e-03
4.355284155720699300e-18 2.268254716306220865e-03 4.552404613075149153e-03 6.745082088829229897e-03 8.681087636149855541e-03 1.012712878968323807e-02
4.666375881129320679e-18 2.430272910328093536e-03 4.877576371151945769e-03 7.226873666602746937e-03 9.301165324446273794e-03 1.085049513180345697e-02
0.000000000000000000e+00 0.000000000000000000e+00 0.000000000000000000e+00 0.000000000000000000e+00 0.000000000000000000e+00 1.577235047821710366e-16
3.110917254086213786e-19 1.620181940218729151e-04 3.251717580767963991e-04 4.817915777735164444e-04 6.200776882964182529e-04 7.233663421203786028e-04
6.221834508172427572e-19 3.240363880437458302e-04 6.503435161535927982e-04 9.635831555470328888e-04 1.240155376592836506e-03 1.446732684240599563e-03
9.332751762258641358e-19 4.860545820656187723e-04 9.755152742303891972e-04 1.445374733320549387e-03 1.860233064889254759e-03 2.170099026360819763e-03
1.244366901634485514e-18 6.480727760874916603e-04 1.300687032307185596e-03 1.927166311094065778e-03 2.480310753185673012e-03 2.893465368481039097e-03
1.555458627043106893e-18 8.100909701093645483e-04 1.625858790383981995e-03 2.408957888867582168e-03 3.100388441482091265e-03 3.616831710601259298e-03
1.866550352451728272e-18 9.721091641312375447e-04 1.951030548460778394e-03 2.890749466641098775e-03 3.720466129778509518e-03 4.340198052721479065e-03
2.177642077860349650e-18 1.134127358153110433e-03 2.276202306537574577e-03 3.372541044414614948e-03 4.340543818074927770e-03 5.063564394841698832e-03
2.488733803268971029e-18 1.296145552174983321e-03 2.601374064614371193e-03 3.854332622188131555e-03 4.960621506371346023e-03 5.786930736961918599e-03
2.799825528677592407e-18 1.458163746196856209e-03 2.926545822691167809e-03 4.336124199961648162e-03 5.580699194667764276e-03 6.510297079082137499e-03
3.110917254086213786e-18 1.620181940218729097e-03 3.251717580767963991e-03 4.817915777735164336e-03 6.200776882964182529e-03 7.233663421202356399e-03
3.422008979494835165e-18 1.782200134240601985e-03 3.576889338844760173e-03 5.299707355508680509e-03 6.820854571260600782e-03 7.957029763322577900e-03
3.733100704903456543e-18 1.944218328262475089e-03 3.902061096921556789e-03 5.781498933282197550e-03 7.440932259557019035e-03 8.680396105442796800e-03
4.044192430312077922e-18 2.106236522284347761e-03 4.227232854998353405e-03 6.263290511055713723e-03 8.061009947853437288e-03 9.403762447563017435e-03
4.355284155720699300e-18 2.268254716306220865e-03 4.552404613075149153e-03 6.745082088829229897e-03 8.681087636149855541e-03 1.012712878968323807e-02
4.666375881129320679e-18 2.430272910328093536e-03 4.877576371151945769e-03 7.226873666602746937e-03 9.301165324446273794e-03 1.085049513180345697e-02
0.000000000000000000e+00 0.000000000000000000e+00 0.000000000000000000e+00 0.000000000000000000e+00 0.000000000000000000e+00 1.574124130567624099e-16
3.110917254086213786e-19 1.620181940218729151e-04 3.251717580767963991e-04 4.817915777735164444e-04 6.200776882964182529e-04 7.233663421203786028e-04
6.221834508172427572e-19 3.240363880437458302e-04 6.503435161535927982e-04 9.635831555470328888e-04 1.240155376592836506e-03 1.446732684240598695e-03
9.332751762258641358e-19 4.860545820656187723e-04 9.755152742303891972e-04 1.445374733320549387e-03 1.860233064889254759e-03 2.170099026360819330e-03
1.244366901634485514e-18 6.480727760874916603e-04 1.300687032307185596e-03 1.927166311094065778e-03 2.480310753185673012e-03 2.893465368481039097e-03
1.555458627043106893e-18 8.100909701093645483e-04 1.625858790383981995e-03 2.408957888867582168e-03 3.100388441482091265e-03 3.616831710601258864e-03
1.866550352451728272e-18 9.721091641312375447e-04 1.951030548460778394e-03 2.890749466641098775e-03 3.720466129778509518e-03 4.340198052721479065e-03
2.177642077860349650e-18 1.134127358153110433e-03 2.276202306537574577e-03 3.372541044414614948e-03 4.340543818074927770e-03 5.063564394841698832e-03
2.488733803268971029e-18 1.296145552174983321e-03 2.601374064614371193e-03 3.854332622188131555e-03 4.960621506371346023e-03 5.786930736961918599e-03
2.799825528677592407e-18 1.458163746196856209e-03 2.926545822691167809e-03 4.336124199961648162e-03 5.580699194667764276e-03 6.510297079082138366e-03
3.110917254086213786e-18 1.620181940218729097e-03 3.251717580767963991e-03 4.817915777735164336e-03 6.200776882964182529e-03 7.233663421202357266e-03
3.422008979494835165e-18 1.782200134240601985e-03 3.576889338844760173e-03 5.299707355508680509e-03 6.820854571260600782e-03 7.957029763322576166e-03
3.733100704903456543e-18 1.944218328262475089e-03 3.902061096921556789e-03 5.781498933282197550e-03 7.440932259557019035e-03 8.680396105442798535e-03
4.044192430312077922e-18 2.106236522284347761e-03 4.227232854998353405e-03 6.263290511055713723e-03 8.061009947853437288e-03 9.403762447563017435e-03
4.355284155720699300e-18 2.268254716306220865e-03 4.552404613075149153e-03 6.745082088829229897e-03 8.681087636149855541e-03 1.012712878968323807e-02
4.666375881129320679e-18 2.430272910328093536e-03 4.877576371151945769e-03 7.226873666602746937e-03 9.301165324446273794e-03 1.085049513180345697e-02
0.000000000000000000e+00 0.000000000000000000e+00 0.000000000000000000e+00 0.000000000000000000e+00 0.000000000000000000e+00 1.583456882329882902e-16
3.110917254086213786e-19 1.620181940218729151e-04 3.251717580767963991e-04 4.817915777735164444e-04 6.200776882964182529e-04 7.233663421203780607e-04
6.221834508172427572e-19 3.240363880437458302e-04 6.503435161535927982e-04 9.635831555470328888e-04 1.240155376592836506e-03 1.446732684240598912e-03
9.332751762258641358e-19 4.860545820656187723e-04 9.755152742303891972e-04 1.445374733320549387e-03 1.860233064889254759e-03 2.170099026360819763e-03
1.244366901634485514e-18 6.480727760874916603e-04 1.300687032307185596e-03 1.927166311094065778e-03 2.480310753185673012e-03 2.893465368481039097e-03
1.555458627043106893e-18 8.100909701093645483e-04 1.625858790383981995e-03 2.408957888867582168e-03 3.100388441482091265e-03 3.616831710601258864e-03
1.866550352451728272e-18 9.721091641312375447e-04 1.951030548460778394e-03 2.890749466641098775e-03 3.720466129778509518e-03 4.340198052721479932e-03
2.177642077860349650e-18 1.134127358153110433e-03 2.276202306537574577e-03 3.372541044414614948e-03 4.340543818074927770e-03 5.063564394841698832e-03
2.488733803268971029e-18 1.296145552174983321e-03 2.601374064614371193e-03 3.854332622188131555e-03 4.960621506371346023e-03 5.786930736961918599e-03
2.799825528677592407e-18 1.458163746196856209e-03 2.926545822691167809e-03 4.336124199961648162e-03 5.580699194667764276e-03 6.510297079082138366e-03
3.110917254086213786e-18 1.620181940218729097e-03 3.251717580767963991e-03 4.817915777735164336e-03 6.200776882964182529e-03 7.233663421202357266e-03
3.422008979494835165e-18 1.782200134240601985e-03 3.576889338844760173e-03 5.299707355508680509e-03 6.820854571260600782e-03 7.957029763322577900e-03
3.733100704903456543e-18 1.944218328262475089e-03 3.902061096921556789e-03 5.781498933282197550e-03 7.440932259557019035e-03 8.680396105442798535e-03
4.044192430312077922e-18 2.106236522284347761e-03 4.227232854998353405e-03 6.263290511055713723e-03 8.061009947853437288e-03 9.403762447563015700e-03
4.355284155720699300e-18 2.268254716306220865e-03 4.552404613075149153e-03 6.745082088829229897e-03 8.681087636149855541e-03 1.012712878968323633e-02
4.666375881129320679e-18 2.430272910328093536e-03 4.877576371151945769e-03 7.226873666602746937e-03 9.301165324446273794e-03 1.085049513180345523e-02
0.000000000000000000e+00 0.000000000000000000e+00 0.000000000000000000e+00 0.000000000000000000e+00 0.000000000000000000e+00 1.583456882329882902e-16
3.110917254086213786e-19 1.620181940218729151e-04 3.251717580767963991e-04 4.817915777735164444e-04 6.200776882964182529e-04 7.233663421203780607e-04
6.221834508172427572e-19 3.240363880437458302e-04 6.503435161535927982e-04 9.635831555470328888e-04 1.240155376592836506e-03 1.446732684240598261e-03
9.332751762258641358e-19 4.860545820656187723e-04 9.755152742303891972e-04 1.445374733320549387e-03 1.860233064889254759e-03 2.170099026360819330e-03
1.244366901634485514e-18 6.480727760874916603e-04 1.300687032307185596e-03 1.927166311094065778e-03 2.480310753185673012e-03 2.893465368481039530e-03
1.555458627043106893e-18 8.100909701093645483e-04 1.625858790383981995e-03 2.408957888867582168e-03 3.100388441482091265e-03 3.616831710601258864e-03
1.866550352451728272e-18 9.721091641312375447e-04 1.951030548460778394e-03 2.890749466641098775e-03 3.720466129778509518e-03 4.340198052721479932e-03
2.177642077860349650e-18 1.134127358153110433e-03 2.276202306537574577e-03 3.372541044414614948e-03 4.340543818074927770e-03 5.063564394841699699e-03
2.488733803268971029e-18 1.296145552174983321e-03 2.601374064614371193e-03 3.854332622188131555e-03 4.960621506371346023e-03 5.786930736961918599e-03
2.799825528677592407e-18 1.458163746196856209e-03 2.926545822691167809e-03 4.336124199961648162e-03 5.580699194667764276e-03 6.510297079082139234e-03
3.110917254086213786e-18 1.620181940218729097e-03 3.251717580767963991e-03 4.817915777735164336e-03 6.200776882964182529e-03 7.233663421202358133e-03
3.422008979494835165e-18 1.782200134240601985e-03 3.576889338844760173e-03 5.299707355508680509e-03 6.820854571260600782e-03 7.957029763322577900e-03
3.733100704903456543e-18 1.944218328262475089e-03 3.902061096921556789e-03 5.781498933282197550e-03 7.440932259557019035e-03 8.680396105442798535e-03
4.044192430312077922e-18 2.106236522284347761e-03 4.227232854998353405e-03 6.263290511055713723e-03 8.061009947853437288e-03 9.403762447563015700e-03
4.355284155720699300e-18 2.268254716306220865e-03 4.552404613075149153e-03 6.745082088829229897e-03 8.681087636149855541e-03 1.012712878968323633e-02
4.666375881129320679e-18 2.430272910328093536e-03 4.877576371151945769e-03 7.226873666602746937e-03 9.301165324446273794e-03 1.085049513180345697e-02
0.000000000000000000e+00 0.000000000000000000e+00 0.000000000000000000e+00 0.000000000000000000e+00 0.000000000000000000e+00 1.583456882329882902e-16
3.110917254086213786e-19 1.620181940218729151e-04 3.251717580767963991e-04 4.817915777735164444e-04 6.200776882964182529e-04 7.233663421203782775e-04
6.221834508172427572e-19 3.240363880437458302e-04 6.503435161535927982e-04 9.635831555470328888e-04 1.240155376592836506e-03 1.446732684240598045e-03
9.332751762258641358e-19 4.860545820656187723e-04 9.755152742303891972e-04 1.445374733320549387e-03 1.860233064889254759e-03 2.170099026360819330e-03
1.244366901634485514e-18 6.480727760874916603e-04 1.300687032307185596e-03 1.927166311094065778e-03 2.480310753185673012e-03 2.893465368481039097e-03
1.555458627043106893e-18 8.100909701093645483e-04 1.625858790383981995e-03 2.408957888867582168e-03 3.100388441482091265e-03 3.616831710601258864e-03
1.866550352451728272e-18 9.721091641312375447e-04 1.951030548460778394e-03 2.890749466641098775e-03 3.720466129778509518e-03 4.340198052721479932e-03
2.177642077860349650e-18 1.134127358153110433e-03 2.276202306537574577e-03 3.372541044414614948e-03 4.340543818074927770e-03 5.063564394841699699e-03
2.488733803268971029e-18 1.296145552174983321e-03 2.601374064614371193e-03 3.854332622188131555e-03 4.960621506371346023e-03 5.786930736961919466e-03
2.799825528677592407e-18 1.458163746196856209e-03 2.926545822691167809e-03 4.336124199961648162e-03 5.580699194667764276e-03 6.510297079082138366e-03
3.110917254086213786e-18 1.620181940218729097e-03 3.251717580767963991e-03 4.817915777735164336e-03 6.200776882964182529e-03 7.233663421202358133e-03
3.422008979494835165e-18 1.782200134240601985e-03 3.576889338844760173e-03 5.299707355508680509e-03 6.820854571260600782e-03 7.957029763322579635e-03
3.733100704903456543e-18 1.944218328262475089e-03 3.902061096921556789e-03 5.781498933282197550e-03 7.440932259557019035e-03 8.680396105442798535e-03
4.044192430312077922e-18 2.106236522284347761e-03 4.227232854998353405e-03 6.263290511055713723e-03 8.061009947853437288e-03 9.403762447563017435e-03
4.355284155720699300e-18 2.268254716306220865e-03 4.552404613075149153e-03 6.745082088829229897e-03 8.681087636149855541e-03 1.012712878968323807e-02
4.666375881129320679e-18 2.430272910328093536e-03 4.877576371151945769e-03 7.226873666602746937e-03 9.301165324446273794e-03 1.085049513180345523e-02
0.000000000000000000e+00 0.000000000000000000e+00 0.000000000000000000e+00 0.000000000000000000e+00 0.000000000000000000e+00 1.577235047821710366e-16
3.110917254086213786e-19 1.620181940218729151e-04 3.251717580767963991e-04 4.817915777735164444e-04 6.200776882964182529e-04 7.233663421203777354e-04
6.221834508172427572e-19 3.240363880437458302e-04 6.503435161535927982e-04 9.635831555470328888e-04 1.240155376592836506e-03 1.446732684240597394e-03
9.332751762258641358e-19 4.860545820656187723e-04 9.755152742303891972e-04 1.445374733320549387e-03 1.860233064889254759e-03 2.170099026360818029e-03
1.244366901634485514e-18 6.480727760874916603e-04 1.300687032307185596e-03 1.927166311094065778e-03 2.480310753185673012e-03 2.893465368481039097e-03
1.555458627043106893e-18 8.100909701093645483e-04 1.625858790383981995e-03 2.408957888867582168e-03 3.100388441482091265e-03 3.616831710601258864e-03
1.866550352451728272e-18 9.721091641312375447e-04 1.951030548460778394e-03 2.890749466641098775e-03 3.720466129778509518e-03 4.340198052721479932e-03
2.177642077860349650e-18 1.134127358153110433e-03 2.276202306537574577e-03 3.372541044414614948e-03 4.340543818074927770e-03 5.063564394841699699e-03
2.488733803268971029e-18 1.296145552174983321e-03 2.601374064614371193e-03 3.854332622188131555e-03 4.960621506371346023e-03 5.786930736961918599e-03
2.799825528677592407e-18 1.458163746196856209e-03 2.926545822691167809e-03 4.336124199961648162e-03 5.580699194667764276e-03 6.510297079082138366e-03
3.110917254086213786e-18 1.620181940218729097e-03 3.251717580767963991e-03 4.817915777735164336e-03 6.200776882964182529e-03 7.233663421202358133e-03
3.422008979494835165e-18 1.782200134240601985e-03 3.576889338844760173e-03 5.299707355508680509e-03 6.820854571260600782e-03 7.957029763322579635e-03
3.733100704903456543e-18 1.944218328262475089e-03 3.902061096921556789e-03 5.781498933282197550e-03 7.440932259557019035e-03 8.680396105442798535e-03
4.044192430312077922e-18 2.106236522284347761e-03 4.227232854998353405e-03 6.263290511055713723e-03 8.061009947853437288e-03 9.403762447563017435e-03
4.355284155720699300e-18 2.268254716306220865e-03 4.552404613075149153e-03 6.745082088829229897e-03 8.681087636149855541e-03 1.012712878968323633e-02
4.666375881129320679e-18 2.430272910328093536e-03 4.877576371151945769e-03 7.226873666602746937e-03 9.301165324446273794e-03 1.085049513180345697e-02
0.000000000000000000e+00 0.000000000000000000e+00 0.000000000000000000e+00 0.000000000000000000e+00 0.000000000000000000e+00 1.580345965075796634e-16
3.110917254086213786e-19 1.620181940218729151e-04 3.251717580767963991e-04 4.817915777735164444e-04 6.200776882964182529e-04 7.233663421203777354e-04
6.221834508172427572e-19 3.240363880437458302e-04 6.503435161535927982e-04 9.635831555470328888e-04 1.240155376592836506e-03 1.446732684240597611e-03
9.332751762258641358e-19 4.860545820656187723e-04 9.755152742303891972e-04 1.445374733320549387e-03 1.860233064889254759e-03 2.170099026360817595e-03
1.244366901634485514e-18 6.480727760874916603e-04 1.300687032307185596e-03 1.927166311094065778e-03 2.480310753185673012e-03 2.893465368481037796e-03
1.555458627043106893e-18 8.100909701093645483e-04 1.625858790383981995e-03 2.408957888867582168e-03 3.100388441482091265e-03 3.616831710601258864e-03
1.866550352451728272e-18 9.721091641312375447e-04 1.951030548460778394e-03 2.890749466641098775e-03 3.720466129778509518e-03 4.340198052721479065e-03
2.177642077860349650e-18 1.134127358153110433e-03 2.276202306537574577e-03 3.372541044414614948e-03 4.340543818074927770e-03 5.063564394841699699e-03
2.488733803268971029e-18 1.296145552174983321e-03 2.601374064614371193e-03 3.854332622188131555e-03 4.960621506371346023e-03 5.786930736961919466e-03
2.799825528677592407e-18 1.458163746196856209e-03 2.926545822691167809e-03 4.336124199961648162e-03 5.580699194667764276e-03 6.510297079082138366e-03
3.110917254086213786e-18 1.620181940218729097e-03 3.251717580767963991e-03 4.817915777735164336e-03 6.200776882964182529e-03 7.233663421202359001e-03
3.422008979494835165e-18 1.782200134240601985e-03 3.576889338844760173e-03 5.299707355508680509e-03 6.820854571260600782e-03 7.957029763322577900e-03
3.733100704903456543e-18 1.944218328262475089e-03 3.902061096921556789e-03 5.781498933282197550e-03 7.440932259557019035e-03 8.680396105442798535e-03
4.044192430312077922e-18 2.106236522284347761e-03 4.227232854998353405e-03 6.263290511055713723e-03 8.061009947853437288e-03 9.403762447563017435e-03
4.355284155720699300e-18 2.268254716306220865e-03 4.552404613075149153e-03 6.745082088829229897e-03 8.681087636149855541e-03 1.012712878968323633e-02
4.666375881129320679e-18 2.430272910328093536e-03 4.877576371151945769e-03 7.226873666602746937e-03 9.301165324446273794e-03 1.085049513180345523e-02
0.000000000000000000e+00 0.000000000000000000e+00 0.000000000000000000e+00 0.000000000000000000e+00 0.000000000000000000e+00 1.571013213313538078e-16
3.110917254086213786e-19 1.620181940218729151e-04 3.251717580767963991e-04 4.817915777735164444e-04 6.200776882964182529e-04 7.233663421203770849e-04
6.221834508172427572e-19 3.240363880437458302e-04 6.503435161535927982e-04 9.635831555470328888e-04 1.240155376592836506e-03 1.446732684240598045e-03
9.332751762258641358e-19 4.860545820656187723e-04 9.755152742303891972e-04 1.445374733320549387e-03 1.860233064889254759e-03 2.170099026360818029e-03
1.244366901634485514e-18 6.480727760874916603e-04 1.300687032307185596e-03 1.927166311094065778e-03 2.480310753185673012e-03 2.893465368481037796e-03
1.555458627043106893e-18 8.100909701093645483e-04 1.625858790383981995e-03 2.408957888867582168e-03 3.100388441482091265e-03 3.616831710601258864e-03
1.866550352451728272e-18 9.721091641312375447e-04 1.951030548460778394e-03 2.890749466641098775e-03 3.720466129778509518e-03 4.340198052721479932e-03
2.177642077860349650e-18 1.134127358153110433e-03 2.276202306537574577e-03 3.372541044414614948e-03 4.340543818074927770e-03 5.063564394841699699e-03
2.488733803268971029e-18 1.296145552174983321e-03 2.601374064614371193e-03 3.854332622188131555e-03 4.960621506371346023e-03 5.786930736961919466e-03
2.799825528677592407e-18 1.458163746196856209e-03 2.926545822691167809e-03 4.336124199961648162e-03 5.580699194667764276e-03 6.510297079082139234e-03
3.110917254086213786e-18 1.620181940218729097e-03 3.251717580767963991e-03 4.817915777735164336e-03 6.200776882964182529e-03 7.233663421202358133e-03
3.422008979494835165e-18 1.782200134240601985e-03 3.576889338844760173e-03 5.299707355508680509e-03 6.820854571260600782e-03 7.957029763322579635e-03
3.733100704903456543e-18 1.944218328262475089e-03 3.902061096921556789e-03 5.781498933282197550e-03 7.440932259557019035e-03 8.680396105442798535e-03
4.044192430312077922e-18 2.106236522284347761e-03 4.227232854998353405e-03 6.263290511055713723e-03 8.061009947853437288e-03 9.403762447563017435e-03
4.355284155720699300e-18 2.268254716306220865e-03 4.552404613075149153e-03 6.745082088829229897e-03 8.681087636149855541e-03 1.012712878968323807e-02
4.666375881129320679e-18 2.430272910328093536e-03 4.877576371151945769e-03 7.226873666602746937e-03 9.301165324446273794e-03 1.085049513180345523e-02
0.000000000000000000e+00 0.000000000000000000e+00 0.000000000000000000e+00 0.000000000000000000e+00 0.000000000000000000e+00 1.574124130567624099e-16
3.110917254086213786e-19 1.620181940218729151e-04 3.251717580767963991e-04 4.817915777735164444e-04 6.200776882964182529e-04 7.233663421203774101e-04
6.221834508172427572e-19 3.240363880437458302e-04 6.503435161535927982e-04 9.635831555470328888e-04 1.240155376592836506e-03 1.446732684240598261e-03
9.332751762258641358e-19 4.860545820656187723e-04 9.755152742303891972e-04 1.445374733320549387e-03 1.860233064889254759e-03 2.170099026360817595e-03
1.244366901634485514e-18 6.480727760874916603e-04 1.300687032307185596e-03 1.927166311094065778e-03 2.480310753185673012e-03 2.893465368481037796e-03
1.555458627043106893e-18 8.100909701093645483e-04 1.625858790383981995e-03 2.408957888867582168e-03 3.100388441482091265e-03 3.616831710601257997e-03
1.866550352451728272e-18 9.721091641312375447e-04 1.951030548460778394e-03 2.890749466641098775e-03 3.720466129778509518e-03 4.340198052721479065e-03
2.177642077860349650e-18 1.134127358153110433e-03 2.276202306537574577e-03 3.372541044414614948e-03 4.340543818074927770e-03 5.063564394841699699e-03
2.488733803268971029e-18 1.296145552174983321e-03 2.601374064614371193e-03 3.854332622188131555e-03 4.960621506371346023e-03 5.786930736961919466e-03
2.799825528677592407e-18 1.458163746196856209e-03 2.926545822691167809e-03 4.336124199961648162e-03 5.580699194667764276e-03 6.510297079082139234e-03
3.110917254086213786e-18 1.620181940218729097e-03 3.251717580767963991e-03 4.817915777735164336e-03 6.200776882964182529e-03 7.233663421202358133e-03
3.422008979494835165e-18 1.782200134240601985e-03 3.576889338844760173e-03 5.299707355508680509e-03 6.820854571260600782e-03 7.957029763322579635e-03
3.733100704903456543e-18 1.944218328262475089e-03 3.902061096921556789e-03 5.781498933282197550e-03 7.440932259557019035e-03 8.680396105442798535e-03
4.044192430312077922e-18 2.106236522284347761e-03 4.227232854998353405e-03 6.263290511055713723e-03 8.061009947853437288e-03 9.403762447563017435e-03
4.355284155720699300e-18 2.268254716306220865e-03 4.552404613075149153e-03 6.745082088829229897e-03 8.681087636149855541e-03 1.012712878968323807e-02
4.666375881129320679e-18 2.430272910328093536e-03 4.877576371151945769e-03 7.226873666602746937e-03 9.301165324446273794e-03 1.085049513180345523e-02
0.000000000000000000e+00 0.000000000000000000e+00 0.000000000000000000e+00 0.000000000000000000e+00 0.000000000000000000e+00 1.567902296059451810e-16
3.110917254086213786e-19 1.620181940218729151e-04 3.251717580767963991e-04 4.817915777735164444e-04 6.200776882964182529e-04 7.233663421203774101e-04
6.221834508172427572e-19 3.240363880437458302e-04 6.503435161535927982e-04 9.635831555470328888e-04 1.240155376592836506e-03 1.446732684240597611e-03
9.332751762258641358e-19 4.860545820656187723e-04 9.755152742303891972e-04 1.445374733320549387e-03 1.860233064889254759e-03 2.170099026360817595e-03
1.244366901634485514e-18 6.480727760874916603e-04 1.300687032307185596e-03 1.927166311094065778e-03 2.480310753185673012e-03 2.893465368481037796e-03
1.555458627043106893e-18 8.100909701093645483e-04 1.625858790383981995e-03 2.408957888867582168e-03 3.100388441482091265e-03 3.616831710601257563e-03
1.866550352451728272e-18 9.721091641312375447e-04 1.951030548460778394e-03 2.890749466641098775e-03 3.720466129778509518e-03 4.340198052721479065e-03
2.177642077860349650e-18 1.134127358153110433e-03 2.276202306537574577e-03 3.372541044414614948e-03 4.340543818074927770e-03 5.063564394841699699e-03
2.488733803268971029e-18 1.296145552174983321e-03 2.601374064614371193e-03 3.854332622188131555e-03 4.960621506371346023e-03 5.786930736961919466e-03
2.799825528677592407e-18 1.458163746196856209e-03 2.926545822691167809e-03 4.336124199961648162e-03 5.580699194667764276e-03 6.510297079082139234e-03
3.110917254086213786e-18 1.620181940218729097e-03 3.251717580767963991e-03 4.817915777735164336e-03 6.200776882964182529e-03 7.233663421202359001e-03
3.422008979494835165e-18 1.782200134240601985e-03 3.576889338844760173e-03 5.299707355508680509e-03 6.820854571260600782e-03 7.957029763322579635e-03
3.733100704903456543e-18 1.944218328262475089e-03 3.902061096921556789e-03 5.781498933282197550e-03 7.440932259557019035e-03 8.680396105442798535e-03
4.044192430312077922e-18 2.106236522284347761e-03 4.227232854998353405e-03 6.263290511055713723e-03 8.061009947853437288e-03 9.403762447563019169e-03
4.355284155720699300e-18 2.268254716306220865e-03 4.552404613075149153e-03 6.745082088829229897e-03 8.681087636149855541e-03 1.012712878968323807e-02
4.666375881129320679e-18 2.430272910328093536e-03 4.877576371151945769e-03 7.226873666602746937e-03 9.301165324446273794e-03 1.085049513180345697e-02
0.000000000000000000e+00 0.000000000000000000e+00 0.000000000000000000e+00 0.000000000000000000e+00 0.000000000000000000e+00 1.574124130567624099e-16
3.110917254086213786e-19 1.620181940218729151e-04 3.251717580767963991e-04 4.817915777735164444e-04 6.200776882964182529e-04 7.233663421203770849e-04
6.221834508172427572e-19 3.240363880437458302e-04 6.503435161535927982e-04 9.635831555470328888e-04 1.240155376592836506e-03 1.446732684240598261e-03
9.332751762258641358e-19 4.860545820656187723e-04 9.755152742303891972e-04 1.445374733320549387e-03 1.860233064889254759e-03 2.170099026360818029e-03
1.244366901634485514e-18 6.480727760874916603e-04 1.300687032307185596e-03 1.927166311094065778e-03 2.480310753185673012e-03 2.893465368481036928e-03
1.555458627043106893e-18 8.100909701093645483e-04 1.625858790383981995e-03 2.408957888867582168e-03 3.100388441482091265e-03 3.616831710601257563e-03
1.866550352451728272e-18 9.721091641312375447e-04 1.951030548460778394e-03 2.890749466641098775e-03 3.720466129778509518e-03 4.340198052721477330e-03
2.177642077860349650e-18 1.134127358153110433e-03 2.276202306537574577e-03 3.372541044414614948e-03 4.340543818074927770e-03 5.063564394841698832e-03
2.488733803268971029e-18 1.296145552174983321e-03 2.601374064614371193e-03 3.854332622188131555e-03 4.960621506371346023e-03 5.786930736961919466e-03
2.799825528677592407e-18 1.458163746196856209e-03 2.926545822691167809e-03 4.336124199961648162e-03 5.580699194667764276e-03 6.510297079082139234e-03
