timestamp,valores
0.0,6.451612903225806
1.000057474567504,0.0
2.000114949135008,-12.903225806451612
3.000172423702512,-16.129032258064516
4.000229898270016,-22.58064516129032
5.000287372837519,-22.58064516129032
6.000344847405024,-22.58064516129032
7.000402321972528,-9.677419354838708
8.000459796540031,9.677419354838708
9.000517271107535,6.451612903225806
10.000574745675038,12.903225806451612
11.000632220242544,22.58064516129032
12.000689694810047,25.806451612903224
13.00074716937755,41.935483870967744
14.000804643945056,38.70967741935483
15.00086211851256,29.03225806451613
16.000919593080063,22.58064516129032
17.000977067647568,0.0
18.00103454221507,-3.225806451612903
19.001092016782575,-9.677419354838708
20.001149491350077,-19.354838709677416
21.001206965917582,-16.129032258064516
22.001264440485087,-29.03225806451613
23.00132191505259,-22.58064516129032
24.001379389620094,-16.129032258064516
25.0014368641876,3.225806451612903
26.0014943387551,16.129032258064516
27.001551813322607,16.129032258064516
28.001609287890112,19.354838709677416
29.001666762457614,38.70967741935483
30.00172423702512,38.70967741935483
31.00178171159262,38.70967741935483
32.001839186160126,25.806451612903224
33.00189666072763,12.903225806451612
34.001954135295136,0.0
35.002011609862635,-6.451612903225806
36.00206908443014,-9.677419354838708
37.002126558997645,-16.129032258064516
38.00218403356515,-25.806451612903224
39.002241508132656,-25.806451612903224
40.002298982700154,-16.129032258064516
41.00235645726766,-6.451612903225806
42.002413931835164,6.451612903225806
43.00247140640267,19.354838709677416
44.002528880970175,16.129032258064516
45.00258635553768,22.58064516129032
46.00264383010518,41.935483870967744
47.002701304672684,38.70967741935483
48.00275877924019,38.70967741935483
49.002816253807694,16.129032258064516
50.0028737283752,9.677419354838708
51.0029312029427,0.0
52.0029886775102,-12.903225806451612
53.00304615207771,-12.903225806451612
54.00310362664521,-16.129032258064516
55.00316110121272,-22.58064516129032
56.003218575780224,-25.806451612903224
57.00327605034772,-19.354838709677416
58.00333352491523,3.225806451612903
59.00339099948273,6.451612903225806
60.00344847405024,19.354838709677416
61.00350594861774,22.58064516129032
62.00356342318524,29.03225806451613
63.00362089775275,38.70967741935483
64.00367837232025,41.935483870967744
65.00373584688775,29.03225806451613
66.00379332145526,25.806451612903224
67.00385079602276,3.225806451612903
68.00390827059027,-3.225806451612903
69.00396574515777,-3.225806451612903
70.00402321972527,-12.903225806451612
71.00408069429278,-25.806451612903224
72.00413816886028,-29.03225806451613
73.00419564342779,-25.806451612903224
74.00425311799529,-12.903225806451612
75.00431059256279,3.225806451612903
76.0043680671303,16.129032258064516
77.0044255416978,16.129032258064516
78.00448301626531,16.129032258064516
79.00454049083281,29.03225806451613
80.00459796540031,51.61290322580645
81.00465543996782,48.387096774193544
82.00471291453532,25.806451612903224
83.00477038910283,16.129032258064516
84.00482786367033,3.225806451612903
85.00488533823784,-6.451612903225806
86.00494281280534,-6.451612903225806
87.00500028737284,-16.129032258064516
88.00505776194035,-29.03225806451613
89.00511523650785,-32.25806451612903
90.00517271107536,-19.354838709677416
91.00523018564286,-6.451612903225806
92.00528766021036,3.225806451612903
93.00534513477787,19.354838709677416
94.00540260934537,16.129032258064516
95.00546008391288,25.806451612903224
96.00551755848038,45.16129032258064
97.00557503304788,38.70967741935483
98.00563250761539,35.483870967741936
99.00568998218289,29.03225806451613
100.0057474567504,9.677419354838708
101.0058049313179,3.225806451612903
102.0058624058854,-16.129032258064516
103.00591988045291,-16.129032258064516
104.0059773550204,-19.354838709677416
105.00603482958792,-25.806451612903224
106.00609230415542,-22.58064516129032
107.00614977872291,-19.354838709677416
108.00620725329043,-3.225806451612903
109.00626472785792,6.451612903225806
110.00632220242544,12.903225806451612
111.00637967699294,12.903225806451612
112.00643715156045,29.03225806451613
113.00649462612795,45.16129032258064
114.00655210069544,45.16129032258064
115.00660957526296,29.03225806451613
116.00666704983045,19.354838709677416
117.00672452439797,0.0
118.00678199896547,0.0
119.00683947353296,-16.129032258064516
120.00689694810048,-16.129032258064516
121.00695442266797,-25.806451612903224
122.00701189723549,-29.03225806451613
123.00706937180298,-16.129032258064516
124.00712684637048,-9.677419354838708
125.007184320938,6.451612903225806
126.0072417955055,9.677419354838708
127.007299270073,16.129032258064516
128.0073567446405,19.354838709677416
129.00741421920802,32.25806451612903
130.0074716937755,45.16129032258064
131.007529168343,48.387096774193544
132.00758664291052,25.806451612903224
133.00764411747804,9.677419354838708
134.00770159204552,-3.225806451612903
135.00775906661303,-3.225806451612903
136.00781654118055,-9.677419354838708
137.00787401574803,-12.903225806451612
138.00793149031554,-22.58064516129032
139.00798896488305,-22.58064516129032
140.00804643945054,-12.903225806451612
141.00810391401805,0.0
142.00816138858556,3.225806451612903
143.00821886315308,16.129032258064516
144.00827633772056,19.354838709677416
145.00833381228807,22.58064516129032
146.00839128685558,35.483870967741936
147.00844876142307,38.70967741935483
148.00850623599058,35.483870967741936
149.0085637105581,25.806451612903224
150.00862118512558,9.677419354838708
151.0086786596931,0.0
152.0087361342606,-6.451612903225806
153.0087936088281,-9.677419354838708
154.0088510833956,-25.806451612903224
155.0089085579631,-35.483870967741936
156.00896603253062,-29.03225806451613
157.0090235070981,-9.677419354838708
158.00908098166562,0.0
159.00913845623313,12.903225806451612
160.00919593080062,16.129032258064516
161.00925340536813,19.354838709677416
162.00931087993564,29.03225806451613
163.00936835450315,38.70967741935483
164.00942582907064,41.935483870967744
165.00948330363815,29.03225806451613
166.00954077820566,25.806451612903224
167.00959825277315,3.225806451612903
168.00965572734066,0.0
169.00971320190817,-12.903225806451612
170.00977067647568,-19.354838709677416
171.00982815104317,-19.354838709677416
172.00988562561068,-22.58064516129032
173.0099431001782,-22.58064516129032
174.01000057474567,-9.677419354838708
175.0100580493132,9.677419354838708
176.0101155238807,19.354838709677416
177.01017299844818,16.129032258064516
178.0102304730157,19.354838709677416
179.0102879475832,25.806451612903224
180.01034542215072,41.935483870967744
181.0104028967182,41.935483870967744
182.01046037128572,25.806451612903224
183.01051784585323,9.677419354838708
184.0105753204207,-6.451612903225806
185.01063279498823,-6.451612903225806
186.01069026955574,-9.677419354838708
187.01074774412322,-9.677419354838708
188.01080521869073,-19.354838709677416
189.01086269325825,-32.25806451612903
190.01092016782576,-19.354838709677416
191.01097764239324,-3.225806451612903
192.01103511696076,3.225806451612903
193.01109259152827,16.129032258064516
194.01115006609575,22.58064516129032
195.01120754066326,29.03225806451613
196.01126501523078,38.70967741935483
197.0113224897983,38.70967741935483
198.01137996436577,32.25806451612903
199.01143743893329,22.58064516129032
200.0114949135008,9.677419354838708
201.01155238806828,-3.225806451612903
202.0116098626358,-9.677419354838708
203.0116673372033,-12.903225806451612
204.0117248117708,-19.354838709677416
205.0117822863383,-25.806451612903224
206.01183976090581,-22.58064516129032
207.01189723547333,-16.129032258064516
208.0119547100408,-6.451612903225806
209.01201218460832,3.225806451612903
210.01206965917584,9.677419354838708
211.01212713374332,16.129032258064516
212.01218460831083,25.806451612903224
213.01224208287834,41.935483870967744
214.01229955744583,41.935483870967744
215.01235703201334,32.25806451612903
216.01241450658085,25.806451612903224
217.01247198114837,9.677419354838708
218.01252945571585,-6.451612903225806
219.01258693028336,-9.677419354838708
220.01264440485087,-9.677419354838708
221.01270187941836,-25.806451612903224
222.01275935398587,-25.806451612903224
223.01281682855338,-16.129032258064516
224.0128743031209,-9.677419354838708
225.01293177768838,6.451612903225806
226.0129892522559,16.129032258064516
227.0130467268234,19.354838709677416
228.0131042013909,19.354838709677416
229.0131616759584,32.25806451612903
230.0132191505259,45.16129032258064
231.0132766250934,38.70967741935483
232.0133340996609,25.806451612903224
233.01339157422842,16.129032258064516
234.01344904879593,-3.225806451612903
235.01350652336342,-9.677419354838708
236.01356399793093,-12.903225806451612
237.01362147249844,-16.129032258064516
238.01367894706593,-22.58064516129032
239.01373642163344,-29.03225806451613
240.01379389620095,-19.354838709677416
241.01385137076844,-9.677419354838708
242.01390884533595,3.225806451612903
243.01396631990346,19.354838709677416
244.01402379447097,19.354838709677416
245.01408126903846,25.806451612903224
246.01413874360597,38.70967741935483
247.01419621817348,45.16129032258064
248.01425369274097,35.483870967741936
249.01431116730848,19.354838709677416
250.014368641876,3.225806451612903
251.01442611644347,6.451612903225806
252.014483591011,-9.677419354838708
253.0145410655785,-9.677419354838708
254.014598540146,-16.129032258064516
255.0146560147135,-29.03225806451613
256.014713489281,-16.129032258064516
257.0147709638485,-12.903225806451612
258.01482843841603,-3.225806451612903
259.0148859129835,6.451612903225806
260.014943387551,16.129032258064516
261.01500086211854,22.58064516129032
262.015058336686,25.806451612903224
263.0151158112535,35.483870967741936
264.01517328582105,38.70967741935483
265.01523076038853,25.806451612903224
266.0152882349561,16.129032258064516
267.01534570952356,0.0
268.01540318409104,-3.225806451612903
269.0154606586586,-6.451612903225806
270.01551813322607,-16.129032258064516
271.01557560779355,-25.806451612903224
272.0156330823611,-22.58064516129032
273.0156905569286,-19.354838709677416
274.01574803149606,-6.451612903225806
275.0158055060636,0.0
276.0158629806311,9.677419354838708
277.01592045519857,22.58064516129032
278.0159779297661,25.806451612903224
279.0160354043336,32.25806451612903
280.0160928789011,35.483870967741936
281.0161503534686,41.935483870967744
282.0162078280361,22.58064516129032
283.0162653026036,9.677419354838708
284.0163227771711,-3.225806451612903
285.0163802517386,-6.451612903225806
286.01643772630615,0.0
287.01649520087363,-12.903225806451612
288.0165526754411,-22.58064516129032
289.01661015000866,-25.806451612903224
290.01666762457614,-12.903225806451612
291.0167250991436,-6.451612903225806
292.01678257371117,3.225806451612903
293.01684004827865,16.129032258064516
294.01689752284614,16.129032258064516
295.0169549974137,22.58064516129032
296.01701247198116,29.03225806451613
297.01706994654865,38.70967741935483
298.0171274211162,32.25806451612903
299.01718489568367,22.58064516129032
300.01724237025115,12.903225806451612
301.0172998448187,0.0
302.0173573193862,-6.451612903225806
303.0174147939537,-12.903225806451612
304.0174722685212,-22.58064516129032
305.0175297430887,-25.806451612903224
306.0175872176562,-19.354838709677416
307.0176446922237,-16.129032258064516
308.0177021667912,3.225806451612903
309.01775964135874,9.677419354838708
310.0178171159262,19.354838709677416
311.0178745904937,25.806451612903224
312.01793206506125,32.25806451612903
313.01798953962873,38.70967741935483
314.0180470141962,41.935483870967744
315.01810448876375,35.483870967741936
316.01816196333124,16.129032258064516
317.0182194378987,3.225806451612903
318.01827691246626,-3.225806451612903
319.01833438703375,-9.677419354838708
320.01839186160123,-19.354838709677416
321.01844933616877,-22.58064516129032
322.01850681073626,-29.03225806451613
323.0185642853038,-9.677419354838708
324.0186217598713,-12.903225806451612
325.01867923443876,3.225806451612903
326.0187367090063,12.903225806451612
327.0187941835738,19.354838709677416
328.0188516581413,19.354838709677416
329.0189091327088,32.25806451612903
330.0189666072763,45.16129032258064
331.0190240818438,41.935483870967744
332.0190815564113,29.03225806451613
333.0191390309788,12.903225806451612
334.0191965055463,0.0
335.01925398011383,0.0
336.0193114546813,-9.677419354838708
337.0193689292488,-19.354838709677416
338.01942640381634,-16.129032258064516
339.0194838783838,-25.806451612903224
340.01954135295136,-22.58064516129032
341.01959882751885,-3.225806451612903
342.01965630208633,9.677419354838708
343.0197137766539,12.903225806451612
344.01977125122136,16.129032258064516
345.01982872578884,22.58064516129032
346.0198862003564,35.483870967741936
347.01994367492387,35.483870967741936
348.02000114949135,35.483870967741936
349.0200586240589,22.58064516129032
350.0201160986264,3.225806451612903
351.02017357319386,-6.451612903225806
352.0202310477614,-12.903225806451612
353.0202885223289,-12.903225806451612
354.02034599689637,-16.129032258064516
355.0204034714639,-22.58064516129032
356.0204609460314,-22.58064516129032
357.02051842059893,-9.677419354838708
358.0205758951664,0.0
359.0206333697339,9.677419354838708
360.02069084430144,19.354838709677416
361.0207483188689,19.354838709677416
362.0208057934364,25.806451612903224
363.02086326800395,41.935483870967744
364.02092074257143,38.70967741935483
365.0209782171389,25.806451612903224
366.02103569170646,19.354838709677416
367.02109316627394,6.451612903225806
368.0211506408414,-3.225806451612903
369.02120811540897,-16.129032258064516
370.02126558997645,-16.129032258064516
371.02132306454394,-12.903225806451612
372.0213805391115,-19.354838709677416
373.02143801367896,-16.129032258064516
374.02149548824644,-6.451612903225806
375.021552962814,3.225806451612903
376.02161043738147,9.677419354838708
377.021667911949,9.677419354838708
378.0217253865165,22.58064516129032
379.021782861084,25.806451612903224
380.0218403356515,41.935483870967744
381.021897810219,41.935483870967744
382.0219552847865,29.03225806451613
383.022012759354,19.354838709677416
384.0220702339215,0.0
385.022127708489,-6.451612903225806
386.02218518305654,-9.677419354838708
387.022242657624,-16.129032258064516
388.0223001321915,-16.129032258064516
389.02235760675904,-25.806451612903224
390.0224150813265,-19.354838709677416
391.022472555894,-3.225806451612903
392.02253003046155,3.225806451612903
393.02258750502904,12.903225806451612
394.0226449795966,22.58064516129032
395.02270245416406,19.354838709677416
396.02275992873155,38.70967741935483
397.0228174032991,35.483870967741936
398.02287487786657,32.25806451612903
399.02293235243405,25.806451612903224
400.0229898270016,9.677419354838708
401.0230473015691,3.225806451612903
402.02310477613656,-6.451612903225806
403.0231622507041,-16.129032258064516
404.0232197252716,-16.129032258064516
405.0232771998391,-16.129032258064516
406.0233346744066,-25.806451612903224
407.0233921489741,-12.903225806451612
408.0234496235416,-6.451612903225806
409.0235070981091,9.677419354838708
410.0235645726766,19.354838709677416
411.0236220472441,16.129032258064516
412.02367952181163,19.354838709677416
413.0237369963791,41.935483870967744
414.02379447094665,38.70967741935483
415.02385194551414,32.25806451612903
416.0239094200816,22.58064516129032
417.02396689464916,9.677419354838708
418.02402436921665,-9.677419354838708
419.02408184378413,-9.677419354838708
420.0241393183517,-16.129032258064516
421.02419679291916,-16.129032258064516
422.02425426748664,-25.806451612903224
423.0243117420542,-16.129032258064516
424.02436921662166,-6.451612903225806
425.02442669118915,3.225806451612903
426.0244841657567,16.129032258064516
427.0245416403242,12.903225806451612
428.02459911489166,19.354838709677416
429.0246565894592,32.25806451612903
430.0247140640267,38.70967741935483
431.0247715385942,41.935483870967744
432.0248290131617,19.354838709677416
433.0248864877292,16.129032258064516
434.02494396229673,3.225806451612903
435.0250014368642,-6.451612903225806
436.0250589114317,-9.677419354838708
437.02511638599924,-9.677419354838708
438.0251738605667,-25.806451612903224
439.0252313351342,-29.03225806451613
440.02528880970175,-16.129032258064516
441.02534628426923,-3.225806451612903
442.0254037588367,6.451612903225806
443.02546123340426,12.903225806451612
444.02551870797174,22.58064516129032
445.0255761825392,25.806451612903224
446.02563365710677,38.70967741935483
447.02569113167425,38.70967741935483
448.0257486062418,38.70967741935483
449.0258060808093,19.354838709677416
450.02586355537676,12.903225806451612
451.0259210299443,0.0
452.0259785045118,-12.903225806451612
453.02603597907927,-9.677419354838708
454.0260934536468,-19.354838709677416
455.0261509282143,-32.25806451612903
456.0262084027818,-29.03225806451613
457.0262658773493,-12.903225806451612
458.0263233519168,3.225806451612903
459.0263808264843,3.225806451612903
460.0264383010518,19.354838709677416
461.0264957756193,19.354838709677416
462.0265532501868,19.354838709677416
463.02661072475433,38.70967741935483
464.0266681993218,38.70967741935483
465.0267256738893,25.806451612903224
466.02678314845684,19.354838709677416
467.0268406230243,3.225806451612903
468.02689809759187,-3.225806451612903
469.02695557215935,-16.129032258064516
470.02701304672684,-12.903225806451612
471.0270705212944,-16.129032258064516
472.02712799586186,-29.03225806451613
473.02718547042934,-22.58064516129032
474.0272429449969,-3.225806451612903
475.02730041956437,3.225806451612903
476.02735789413185,12.903225806451612
477.0274153686994,19.354838709677416
478.0274728432669,22.58064516129032
479.02753031783436,25.806451612903224
480.0275877924019,41.935483870967744
481.0276452669694,51.61290322580645
482.02770274153687,32.25806451612903
483.0277602161044,22.58064516129032
484.0278176906719,3.225806451612903
485.02787516523944,-9.677419354838708
486.0279326398069,-9.677419354838708
487.0279901143744,-22.58064516129032
488.02804758894194,-19.354838709677416
489.02810506350943,-29.03225806451613
490.0281625380769,-16.129032258064516
491.02822001264445,-6.451612903225806
492.02827748721194,0.0
493.0283349617794,22.58064516129032
494.02839243634696,25.806451612903224
495.02844991091445,25.806451612903224
496.02850738548193,32.25806451612903
497.02856486004947,35.483870967741936
498.02862233461695,45.16129032258064
499.02867980918444,19.354838709677416
500.028737283752,9.677419354838708
501.02879475831946,-6.451612903225806
502.02885223288695,-9.677419354838708
503.0289097074545,-9.677419354838708
504.028967182022,-19.354838709677416
505.0290246565895,-22.58064516129032
506.029082131157,-19.354838709677416
507.0291396057245,-6.451612903225806
508.029197080292,-3.225806451612903
509.0292545548595,6.451612903225806
510.029312029427,6.451612903225806
511.02936950399453,16.129032258064516
512.029426978562,22.58064516129032
513.0294844531295,35.483870967741936
514.029541927697,38.70967741935483
515.0295994022646,32.25806451612903
516.0296568768321,29.03225806451613
517.0297143513995,3.225806451612903
518.029771825967,-3.225806451612903
519.0298293005345,-12.903225806451612
520.029886775102,-12.903225806451612
521.0299442496696,-22.58064516129032
522.0300017242371,-29.03225806451613
523.0300591988046,-16.129032258064516
524.030116673372,-9.677419354838708
525.0301741479395,6.451612903225806
526.030231622507,12.903225806451612
527.0302890970746,16.129032258064516
528.0303465716421,19.354838709677416
529.0304040462096,29.03225806451613
530.0304615207771,41.935483870967744
531.0305189953446,38.70967741935483
532.0305764699121,29.03225806451613
533.0306339444796,12.903225806451612
534.0306914190471,0.0
535.0307488936146,-16.129032258064516
536.0308063681821,-9.677419354838708
537.0308638427496,-12.903225806451612
538.0309213173172,-19.354838709677416
539.0309787918846,-22.58064516129032
540.0310362664521,-16.129032258064516
541.0310937410196,3.225806451612903
542.0311512155871,6.451612903225806
543.0312086901546,12.903225806451612
544.0312661647222,16.129032258064516
545.0313236392897,25.806451612903224
546.0313811138572,38.70967741935483
547.0314385884246,38.70967741935483
548.0314960629921,29.03225806451613
549.0315535375597,19.354838709677416
550.0316110121272,9.677419354838708
551.0316684866947,0.0
552.0317259612622,-6.451612903225806
553.0317834358297,-16.129032258064516
554.0318409103971,-16.129032258064516
555.0318983849647,-25.806451612903224
556.0319558595322,-25.806451612903224
557.0320133340997,-16.129032258064516
558.0320708086672,-3.225806451612903
559.0321282832347,9.677419354838708
560.0321857578022,12.903225806451612
561.0322432323698,22.58064516129032
562.0323007069372,35.483870967741936
563.0323581815047,38.70967741935483
564.0324156560722,38.70967741935483
565.0324731306397,32.25806451612903
566.0325306052072,22.58064516129032
567.0325880797748,-3.225806451612903
568.0326455543423,-6.451612903225806
569.0327030289097,-9.677419354838708
570.0327605034772,-16.129032258064516
571.0328179780447,-16.129032258064516
572.0328754526123,-25.806451612903224
573.0329329271798,-19.354838709677416
574.0329904017473,-9.677419354838708
575.0330478763148,0.0
576.0331053508822,16.129032258064516
577.0331628254497,16.129032258064516
578.0332203000173,12.903225806451612
579.0332777745848,25.806451612903224
580.0333352491523,41.935483870967744
581.0333927237198,35.483870967741936
582.0334501982873,29.03225806451613
583.0335076728547,19.354838709677416
584.0335651474223,0.0
585.0336226219898,-6.451612903225806
586.0336800965573,-6.451612903225806
587.0337375711248,-12.903225806451612
588.0337950456923,-22.58064516129032
589.0338525202599,-25.806451612903224
590.0339099948274,-19.354838709677416
591.0339674693948,-16.129032258064516
592.0340249439623,6.451612903225806
593.0340824185298,12.903225806451612
594.0341398930973,16.129032258064516
595.0341973676649,25.806451612903224
596.0342548422324,38.70967741935483
597.0343123167999,41.935483870967744
598.0343697913673,35.483870967741936
599.0344272659348,29.03225806451613
600.0344847405023,9.677419354838708
601.0345422150699,9.677419354838708
602.0345996896374,-12.903225806451612
603.0346571642049,-16.129032258064516
604.0347146387724,-16.129032258064516
605.0347721133398,-32.25806451612903
606.0348295879074,-16.129032258064516
607.0348870624749,-12.903225806451612
608.0349445370424,0.0
609.0350020116099,16.129032258064516
610.0350594861774,9.677419354838708
611.0351169607449,22.58064516129032
612.0351744353125,29.03225806451613
613.0352319098799,38.70967741935483
614.0352893844474,41.935483870967744
615.0353468590149,25.806451612903224
616.0354043335824,16.129032258064516
617.0354618081499,-3.225806451612903
618.0355192827175,-6.451612903225806
619.035576757285,-12.903225806451612
620.0356342318524,-12.903225806451612
621.0356917064199,-12.903225806451612
622.0357491809874,-32.25806451612903
623.035806655555,-22.58064516129032
624.0358641301225,-6.451612903225806
625.03592160469,3.225806451612903
626.0359790792575,9.677419354838708
627.0360365538249,12.903225806451612
628.0360940283924,16.129032258064516
629.03615150296,29.03225806451613
630.0362089775275,38.70967741935483
631.036266452095,41.935483870967744
632.0363239266625,25.806451612903224
633.03638140123,19.354838709677416
634.0364388757974,3.225806451612903
635.036496350365,-9.677419354838708
636.0365538249325,-9.677419354838708
637.0366112995,-12.903225806451612
638.0366687740675,-19.354838709677416
639.036726248635,-25.806451612903224
640.0367837232025,-16.129032258064516
641.0368411977701,-3.225806451612903
642.0368986723375,3.225806451612903
643.036956146905,16.129032258064516
644.0370136214725,16.129032258064516
645.03707109604,16.129032258064516
646.0371285706076,29.03225806451613
647.0371860451751,41.935483870967744
648.0372435197426,38.70967741935483
649.03730099431,19.354838709677416
650.0373584688775,12.903225806451612
651.037415943445,3.225806451612903
652.0374734180126,-12.903225806451612
653.0375308925801,-9.677419354838708
654.0375883671476,-16.129032258064516
655.0376458417151,-22.58064516129032
656.0377033162825,-19.354838709677416
657.03776079085,-12.903225806451612
658.0378182654176,-3.225806451612903
659.0378757399851,9.677419354838708
660.0379332145526,19.354838709677416
661.0379906891201,22.58064516129032
662.0380481636876,19.354838709677416
663.0381056382552,35.483870967741936
664.0381631128226,41.935483870967744
665.0382205873901,29.03225806451613
666.0382780619576,19.354838709677416
667.0383355365251,0.0
668.0383930110926,-9.677419354838708
669.0384504856602,-9.677419354838708
670.0385079602277,-22.58064516129032
671.0385654347951,-12.903225806451612
672.0386229093626,-22.58064516129032
673.0386803839301,-22.58064516129032
674.0387378584976,-12.903225806451612
675.0387953330652,12.903225806451612
676.0388528076327,19.354838709677416
677.0389102822002,19.354838709677416
678.0389677567676,19.354838709677416
679.0390252313351,25.806451612903224
680.0390827059027,38.70967741935483
681.0391401804702,35.483870967741936
682.0391976550377,22.58064516129032
683.0392551296052,19.354838709677416
684.0393126041727,6.451612903225806
685.0393700787401,-6.451612903225806
686.0394275533077,-6.451612903225806
687.0394850278752,-19.354838709677416
688.0395425024427,-22.58064516129032
689.0395999770102,-32.25806451612903
690.0396574515777,-19.354838709677416
691.0397149261452,-6.451612903225806
692.0397724007128,6.451612903225806
693.0398298752802,12.903225806451612
694.0398873498477,25.806451612903224
695.0399448244152,25.806451612903224
696.0400022989827,32.25806451612903
697.0400597735503,35.483870967741936
698.0401172481178,38.70967741935483
699.0401747226853,22.58064516129032
700.0402321972527,16.129032258064516
701.0402896718202,-6.451612903225806
702.0403471463877,-16.129032258064516
703.0404046209553,-9.677419354838708
704.0404620955228,-19.354838709677416
705.0405195700903,-32.25806451612903
706.0405770446578,-16.129032258064516
707.0406345192253,-16.129032258064516
708.0406919937927,-6.451612903225806
709.0407494683603,6.451612903225806
710.0408069429278,19.354838709677416
711.0408644174953,25.806451612903224
712.0409218920628,25.806451612903224
713.0409793666303,41.935483870967744
714.0410368411979,38.70967741935483
715.0410943157653,32.25806451612903
716.0411517903328,22.58064516129032
717.0412092649003,3.225806451612903
718.0412667394678,-9.677419354838708
719.0413242140353,-12.903225806451612
720.0413816886029,-12.903225806451612
721.0414391631704,-22.58064516129032
722.0414966377379,-32.25806451612903
723.0415541123053,-16.129032258064516
724.0416115868728,-3.225806451612903
725.0416690614403,6.451612903225806
726.0417265360079,19.354838709677416
727.0417840105754,25.806451612903224
728.0418414851429,19.354838709677416
729.0418989597104,25.806451612903224
730.0419564342778,41.935483870967744
731.0420139088453,32.25806451612903
732.0420713834129,29.03225806451613
733.0421288579804,19.354838709677416
734.0421863325479,6.451612903225806
735.0422438071154,-9.677419354838708
736.0423012816829,-12.903225806451612
737.0423587562505,-16.129032258064516
738.0424162308179,-22.58064516129032
739.0424737053854,-32.25806451612903
740.0425311799529,-16.129032258064516
741.0425886545204,3.225806451612903
742.0426461290879,3.225806451612903
743.0427036036555,19.354838709677416
744.042761078223,22.58064516129032
745.0428185527904,25.806451612903224
746.0428760273579,35.483870967741936
747.0429335019254,35.483870967741936
748.0429909764929,29.03225806451613
749.0430484510605,19.354838709677416
750.043105925628,9.677419354838708
751.0431634001955,3.225806451612903
752.0432208747629,-9.677419354838708
753.0432783493304,-12.903225806451612
754.043335823898,-16.129032258064516
755.0433932984655,-25.806451612903224
756.043450773033,-25.806451612903224
757.0435082476005,-12.903225806451612
758.043565722168,-3.225806451612903
759.0436231967354,6.451612903225806
760.043680671303,22.58064516129032
761.0437381458705,22.58064516129032
762.043795620438,29.03225806451613
763.0438530950055,38.70967741935483
764.043910569573,38.70967741935483
765.0439680441405,22.58064516129032
766.044025518708,25.806451612903224
767.0440829932755,9.677419354838708
768.044140467843,-6.451612903225806
769.0441979424105,-12.903225806451612
770.044255416978,-16.129032258064516
771.0443128915456,-25.806451612903224
772.0443703661131,-25.806451612903224
773.0444278406806,-16.129032258064516
774.044485315248,-9.677419354838708
775.0445427898155,3.225806451612903
776.044600264383,16.129032258064516
777.0446577389506,22.58064516129032
778.0447152135181,19.354838709677416
779.0447726880856,35.483870967741936
780.044830162653,38.70967741935483
781.0448876372205,41.935483870967744
782.044945111788,25.806451612903224
783.0450025863556,6.451612903225806
784.0450600609231,0.0
785.0451175354906,-12.903225806451612
786.0451750100581,-6.451612903225806
787.0452324846256,-12.903225806451612
788.0452899591932,-19.354838709677416
789.0453474337606,-25.806451612903224
790.0454049083281,-22.58064516129032
791.0454623828956,-6.451612903225806
792.0455198574631,3.225806451612903
793.0455773320306,12.903225806451612
794.0456348065982,19.354838709677416
795.0456922811657,25.806451612903224
796.0457497557331,29.03225806451613
797.0458072303006,41.935483870967744
798.0458647048681,41.935483870967744
799.0459221794356,25.806451612903224
800.0459796540032,16.129032258064516
801.0460371285707,6.451612903225806
802.0460946031382,-9.677419354838708
803.0461520777056,-16.129032258064516
804.0462095522731,-22.58064516129032
805.0462670268407,-25.806451612903224
806.0463245014082,-19.354838709677416
807.0463819759757,-16.129032258064516
808.0464394505432,-3.225806451612903
809.0464969251107,9.677419354838708
810.0465543996781,22.58064516129032
811.0466118742457,29.03225806451613
812.0466693488132,25.806451612903224
813.0467268233807,38.70967741935483
814.0467842979482,35.483870967741936
815.0468417725157,22.58064516129032
816.0468992470832,9.677419354838708
817.0469567216508,3.225806451612903
818.0470141962182,-3.225806451612903
819.0470716707857,-9.677419354838708
820.0471291453532,-12.903225806451612
821.0471866199207,-16.129032258064516
822.0472440944882,-25.806451612903224
823.0473015690558,-16.129032258064516
824.0473590436233,-3.225806451612903
825.0474165181907,6.451612903225806
826.0474739927582,12.903225806451612
827.0475314673257,16.129032258064516
828.0475889418933,22.58064516129032
829.0476464164608,32.25806451612903
830.0477038910283,45.16129032258064
831.0477613655958,41.935483870967744
832.0478188401632,25.806451612903224
833.0478763147307,12.903225806451612
834.0479337892983,-3.225806451612903
835.0479912638658,-12.903225806451612
836.0480487384333,-9.677419354838708
837.0481062130008,-19.354838709677416
838.0481636875683,-25.806451612903224
839.0482211621357,-19.354838709677416
840.0482786367033,-12.903225806451612
841.0483361112708,-3.225806451612903
842.0483935858383,3.225806451612903
843.0484510604058,12.903225806451612
844.0485085349733,22.58064516129032
845.0485660095409,19.354838709677416
846.0486234841084,35.483870967741936
847.0486809586758,38.70967741935483
848.0487384332433,38.70967741935483
849.0487959078108,22.58064516129032
850.0488533823783,6.451612903225806
851.0489108569459,-6.451612903225806
852.0489683315134,-3.225806451612903
853.0490258060809,-6.451612903225806
854.0490832806483,-19.354838709677416
855.0491407552158,-25.806451612903224
856.0491982297833,-19.354838709677416
857.0492557043509,-16.129032258064516
858.0493131789184,-6.451612903225806
859.0493706534859,9.677419354838708
860.0494281280534,16.129032258064516
861.0494856026208,22.58064516129032
862.0495430771884,29.03225806451613
863.0496005517559,38.70967741935483
864.0496580263234,41.935483870967744
865.0497155008909,29.03225806451613
866.0497729754584,22.58064516129032
867.0498304500259,6.451612903225806
868.0498879245935,3.225806451612903
869.049945399161,-12.903225806451612
870.0500028737284,-22.58064516129032
871.0500603482959,-25.806451612903224
872.0501178228634,-32.25806451612903
873.0501752974309,-22.58064516129032
874.0502327719985,-9.677419354838708
875.050290246566,3.225806451612903
876.0503477211334,12.903225806451612
877.0504051957009,19.354838709677416
878.0504626702684,19.354838709677416
879.050520144836,41.935483870967744
880.0505776194035,38.70967741935483
881.050635093971,45.16129032258064
882.0506925685385,25.806451612903224
883.050750043106,9.677419354838708
884.0508075176734,3.225806451612903
885.050864992241,-9.677419354838708
886.0509224668085,-9.677419354838708
887.050979941376,-12.903225806451612
888.0510374159435,-22.58064516129032
889.051094890511,-35.483870967741936
890.0511523650785,-12.903225806451612
891.051209839646,-6.451612903225806
892.0512673142135,3.225806451612903
893.051324788781,9.677419354838708
894.0513822633485,25.806451612903224
895.051439737916,22.58064516129032
896.0514972124836,38.70967741935483
897.0515546870511,35.483870967741936
898.0516121616186,29.03225806451613
899.051669636186,19.354838709677416
900.0517271107535,12.903225806451612
901.051784585321,0.0
902.0518420598886,-9.677419354838708
903.0518995344561,-9.677419354838708
904.0519570090236,-12.903225806451612
905.052014483591,-29.03225806451613
906.0520719581585,-25.806451612903224
907.052129432726,-12.903225806451612
908.0521869072936,3.225806451612903
909.0522443818611,12.903225806451612
910.0523018564286,16.129032258064516
911.0523593309961,25.806451612903224
912.0524168055636,29.03225806451613
913.052474280131,38.70967741935483
914.0525317546986,38.70967741935483
915.0525892292661,29.03225806451613
916.0526467038336,19.354838709677416
917.0527041784011,6.451612903225806
918.0527616529686,-6.451612903225806
919.0528191275362,-6.451612903225806
920.0528766021037,-9.677419354838708
921.0529340766711,-12.903225806451612
922.0529915512386,-29.03225806451613
923.0530490258061,-19.354838709677416
924.0531065003736,-9.677419354838708
925.0531639749412,0.0
926.0532214495087,19.354838709677416
927.0532789240762,16.129032258064516
928.0533363986436,19.354838709677416
929.0533938732111,25.806451612903224
930.0534513477786,38.70967741935483
931.0535088223462,41.935483870967744
932.0535662969137,25.806451612903224
933.0536237714812,12.903225806451612
934.0536812460487,0.0
935.0537387206161,-9.677419354838708
936.0537961951837,-9.677419354838708
937.0538536697512,-12.903225806451612
938.0539111443187,-22.58064516129032
939.0539686188862,-22.58064516129032
940.0540260934537,-12.903225806451612
941.0540835680212,0.0
942.0541410425888,9.677419354838708
943.0541985171562,12.903225806451612
944.0542559917237,12.903225806451612
945.0543134662912,16.129032258064516
946.0543709408587,32.25806451612903
947.0544284154262,41.935483870967744
948.0544858899938,38.70967741935483
949.0545433645613,25.806451612903224
950.0546008391287,12.903225806451612
951.0546583136962,-3.225806451612903
952.0547157882637,-16.129032258064516
953.0547732628313,-12.903225806451612
954.0548307373988,-16.129032258064516
955.0548882119663,-29.03225806451613
956.0549456865338,-16.129032258064516
957.0550031611012,-9.677419354838708
958.0550606356687,-6.451612903225806
959.0551181102363,9.677419354838708
960.0551755848038,16.129032258064516
961.0552330593713,19.354838709677416
962.0552905339388,29.03225806451613
963.0553480085063,45.16129032258064
964.0554054830737,41.935483870967744
965.0554629576413,38.70967741935483
966.0555204322088,16.129032258064516
967.0555779067763,6.451612903225806
968.0556353813438,-6.451612903225806
969.0556928559113,-12.903225806451612
970.0557503304789,-12.903225806451612
971.0558078050464,-16.129032258064516
972.0558652796138,-25.806451612903224
973.0559227541813,-16.129032258064516
974.0559802287488,-16.129032258064516
975.0560377033163,3.225806451612903
976.0560951778839,12.903225806451612
977.0561526524514,16.129032258064516
978.0562101270189,19.354838709677416
979.0562676015863,29.03225806451613
980.0563250761538,38.70967741935483
981.0563825507213,35.483870967741936
982.0564400252889,29.03225806451613
983.0564974998564,9.677419354838708
984.0565549744239,3.225806451612903
985.0566124489914,-9.677419354838708
986.0566699235588,-16.129032258064516
987.0567273981263,-12.903225806451612
988.0567848726939,-19.354838709677416
989.0568423472614,-22.58064516129032
990.0568998218289,-22.58064516129032
991.0569572963964,-9.677419354838708
992.0570147709639,3.225806451612903
993.0570722455315,9.677419354838708
994.0571297200989,25.806451612903224
995.0571871946664,25.806451612903224
996.0572446692339,38.70967741935483
997.0573021438014,45.16129032258064
998.0573596183689,35.483870967741936
999.0574170929365,19.354838709677416
1000.057474567504,6.451612903225806
1001.0575320420714,3.225806451612903
1002.0575895166389,-16.129032258064516
1003.0576469912064,-9.677419354838708
1004.0577044657739,-19.354838709677416
1005.0577619403415,-22.58064516129032
1006.057819414909,-19.354838709677416
1007.0578768894765,-9.677419354838708
1008.057934364044,0.0
1009.0579918386114,9.677419354838708
1010.058049313179,19.354838709677416
1011.0581067877465,25.806451612903224
1012.058164262314,25.806451612903224
1013.0582217368815,38.70967741935483
1014.058279211449,41.935483870967744
1015.0583366860164,32.25806451612903
1016.058394160584,19.354838709677416
1017.0584516351515,3.225806451612903
1018.058509109719,-6.451612903225806
1019.0585665842865,-9.677419354838708
1020.058624058854,-12.903225806451612
1021.0586815334215,-16.129032258064516
1022.0587390079891,-25.806451612903224
1023.0587964825565,-19.354838709677416
1024.058853957124,-6.451612903225806
1025.0589114316915,-9.677419354838708
1026.058968906259,19.354838709677416
1027.0590263808265,19.354838709677416
1028.059083855394,16.129032258064516
1029.0591413299614,29.03225806451613
1030.0591988045292,38.70967741935483
1031.0592562790966,48.387096774193544
1032.0593137536641,32.25806451612903
1033.0593712282316,12.903225806451612
1034.059428702799,-3.225806451612903
1035.0594861773666,-9.677419354838708
1036.059543651934,-6.451612903225806
1037.0596011265015,-22.58064516129032
1038.059658601069,-25.806451612903224
1039.0597160756365,-29.03225806451613
1040.059773550204,-9.677419354838708
1041.0598310247715,-3.225806451612903
1042.0598884993392,3.225806451612903
1043.0599459739067,12.903225806451612
1044.0600034484742,16.129032258064516
1045.0600609230416,25.806451612903224
1046.0601183976091,35.483870967741936
1047.0601758721766,41.935483870967744
1048.060233346744,38.70967741935483
1049.0602908213116,22.58064516129032
1050.060348295879,12.903225806451612
1051.0604057704466,-6.451612903225806
1052.060463245014,-16.129032258064516
1053.0605207195817,-16.129032258064516
1054.0605781941492,-16.129032258064516
1055.0606356687167,-25.806451612903224
1056.0606931432842,-22.58064516129032
1057.0607506178517,-12.903225806451612
1058.0608080924192,3.225806451612903
1059.0608655669866,6.451612903225806
1060.0609230415541,16.129032258064516
1061.0609805161216,19.354838709677416
1062.061037990689,29.03225806451613
1063.0610954652566,35.483870967741936
1064.0611529398243,45.16129032258064
1065.0612104143918,25.806451612903224
1066.0612678889593,16.129032258064516
1067.0613253635267,3.225806451612903
1068.0613828380942,-3.225806451612903
1069.0614403126617,-9.677419354838708
1070.0614977872292,-12.903225806451612
1071.0615552617967,-16.129032258064516
1072.0616127363642,-25.806451612903224
1073.0616702109317,-9.677419354838708
1074.0617276854991,-9.677419354838708
1075.0617851600666,6.451612903225806
1076.0618426346343,12.903225806451612
1077.0619001092018,16.129032258064516
1078.0619575837693,19.354838709677416
1079.0620150583368,32.25806451612903
1080.0620725329043,35.483870967741936
1081.0621300074718,41.935483870967744
1082.0621874820392,29.03225806451613
1083.0622449566067,12.903225806451612
1084.0623024311742,-6.451612903225806
1085.0623599057417,-9.677419354838708
1086.0624173803092,-9.677419354838708
1087.0624748548769,-12.903225806451612
1088.0625323294444,-25.806451612903224
1089.0625898040118,-29.03225806451613
1090.0626472785793,-22.58064516129032
1091.0627047531468,3.225806451612903
1092.0627622277143,9.677419354838708
1093.0628197022818,16.129032258064516
1094.0628771768493,12.903225806451612
1095.0629346514168,16.129032258064516
1096.0629921259842,32.25806451612903
1097.0630496005517,41.935483870967744
1098.0631070751194,41.935483870967744
1099.063164549687,22.58064516129032
1100.0632220242544,6.451612903225806
1101.0632794988219,0.0
1102.0633369733894,-9.677419354838708
1103.0633944479569,-9.677419354838708
1104.0634519225243,-12.903225806451612
1105.0635093970918,-29.03225806451613
1106.0635668716593,-19.354838709677416
1107.0636243462268,-16.129032258064516
1108.0636818207943,-3.225806451612903
1109.0637392953618,12.903225806451612
1110.0637967699295,22.58064516129032
1111.063854244497,19.354838709677416
1112.0639117190644,25.806451612903224
1113.063969193632,41.935483870967744
1114.0640266681994,38.70967741935483
1115.064084142767,25.806451612903224
1116.0641416173344,16.129032258064516
1117.0641990919019,9.677419354838708
1118.0642565664693,-6.451612903225806
1119.0643140410368,-9.677419354838708
1120.0643715156043,-12.903225806451612
1121.064428990172,-25.806451612903224
1122.0644864647395,-25.806451612903224
1123.064543939307,-16.129032258064516
1124.0646014138745,-6.451612903225806
1125.064658888442,3.225806451612903
1126.0647163630094,16.129032258064516
1127.064773837577,12.903225806451612
1128.0648313121444,25.806451612903224
1129.064888786712,32.25806451612903
1130.0649462612794,38.70967741935483
1131.0650037358469,41.935483870967744
1132.0650612104143,22.58064516129032
1133.065118684982,16.129032258064516
1134.0651761595495,0.0
1135.065233634117,-12.903225806451612
1136.0652911086845,-9.677419354838708
1137.065348583252,-12.903225806451612
1138.0654060578195,-25.806451612903224
1139.065463532387,-22.58064516129032
1140.0655210069544,-16.129032258064516
1141.065578481522,0.0
1142.0656359560894,3.225806451612903
1143.065693430657,16.129032258064516
1144.0657509052246,19.354838709677416
1145.065808379792,22.58064516129032
1146.0658658543596,32.25806451612903
1147.065923328927,38.70967741935483
1148.0659808034945,41.935483870967744
1149.066038278062,25.806451612903224
1150.0660957526295,12.903225806451612
1151.066153227197,0.0
1152.0662107017645,-9.677419354838708
1153.066268176332,-22.58064516129032
1154.0663256508994,-22.58064516129032
1155.0663831254672,-25.806451612903224
1156.0664406000346,-22.58064516129032
1157.0664980746021,-12.903225806451612
1158.0665555491696,-6.451612903225806
1159.066613023737,6.451612903225806
1160.0666704983046,16.129032258064516
1161.066727972872,25.806451612903224
1162.0667854474395,25.806451612903224
1163.066842922007,41.935483870967744
1164.0669003965745,38.70967741935483
1165.066957871142,29.03225806451613
1166.0670153457095,19.354838709677416
1167.0670728202772,0.0
1168.0671302948447,-3.225806451612903
1169.0671877694122,0.0
1170.0672452439796,-9.677419354838708
1171.0673027185471,-19.354838709677416
1172.0673601931146,-32.25806451612903
1173.067417667682,-12.903225806451612
1174.0674751422496,-9.677419354838708
1175.067532616817,6.451612903225806
1176.0675900913845,19.354838709677416
1177.067647565952,22.58064516129032
1178.0677050405197,16.129032258064516
1179.0677625150872,22.58064516129032
1180.0678199896547,35.483870967741936
1181.0678774642222,32.25806451612903
1182.0679349387897,22.58064516129032
1183.0679924133572,12.903225806451612
1184.0680498879246,0.0
1185.0681073624921,-9.677419354838708
1186.0681648370596,-9.677419354838708
1187.068222311627,-16.129032258064516
1188.0682797861946,-19.354838709677416
1189.0683372607623,-29.03225806451613
1190.0683947353298,-16.129032258064516
1191.0684522098973,-6.451612903225806
1192.0685096844647,6.451612903225806
1193.0685671590322,16.129032258064516
1194.0686246335997,16.129032258064516
1195.0686821081672,25.806451612903224
1196.0687395827347,32.25806451612903
1197.0687970573022,41.935483870967744
1198.0688545318696,38.70967741935483
1199.0689120064371,29.03225806451613
1200.0689694810046,3.225806451612903
1201.0690269555723,-3.225806451612903
1202.0690844301398,-9.677419354838708
1203.0691419047073,-9.677419354838708
1204.0691993792748,-12.903225806451612
1205.0692568538423,-22.58064516129032
1206.0693143284097,-19.354838709677416
1207.0693718029772,-9.677419354838708
1208.0694292775447,-9.677419354838708
1209.0694867521122,9.677419354838708
1210.0695442266797,16.129032258064516
1211.0696017012472,22.58064516129032
1212.0696591758149,22.58064516129032
1213.0697166503824,41.935483870967744
1214.0697741249498,41.935483870967744
1215.0698315995173,32.25806451612903
1216.0698890740848,19.354838709677416
1217.0699465486523,9.677419354838708
1218.0700040232198,-3.225806451612903
1219.0700614977873,-9.677419354838708
1220.0701189723547,-12.903225806451612
1221.0701764469222,-22.58064516129032
1222.0702339214897,-38.70967741935483
1223.0702913960572,-22.58064516129032
1224.070348870625,-6.451612903225806
1225.0704063451924,9.677419354838708
1226.0704638197599,16.129032258064516
1227.0705212943274,16.129032258064516
1228.0705787688948,22.58064516129032
1229.0706362434623,32.25806451612903
1230.0706937180298,38.70967741935483
1231.0707511925973,41.935483870967744
1232.0708086671648,25.806451612903224
1233.0708661417323,16.129032258064516
1234.0709236162998,3.225806451612903
1235.0709810908675,-9.677419354838708
1236.071038565435,-9.677419354838708
1237.0710960400024,-12.903225806451612
1238.07115351457,-22.58064516129032
1239.0712109891374,-29.03225806451613
1240.0712684637049,-19.354838709677416
1241.0713259382724,-3.225806451612903
1242.0713834128399,-3.225806451612903
1243.0714408874073,12.903225806451612
1244.0714983619748,25.806451612903224
1245.0715558365423,29.03225806451613
1246.07161331111,35.483870967741936
1247.0716707856775,35.483870967741936
1248.071728260245,29.03225806451613
1249.0717857348125,22.58064516129032
1250.07184320938,9.677419354838708
1251.0719006839474,0.0
1252.071958158515,-9.677419354838708
1253.0720156330824,-9.677419354838708
1254.0720731076499,-16.129032258064516
1255.0721305822174,-22.58064516129032
1256.0721880567849,-19.354838709677416
1257.0722455313523,-16.129032258064516
1258.07230300592,-6.451612903225806
1259.0723604804875,12.903225806451612
1260.072417955055,19.354838709677416
1261.0724754296225,16.129032258064516
1262.07253290419,22.58064516129032
1263.0725903787575,38.70967741935483
1264.072647853325,38.70967741935483
1265.0727053278924,29.03225806451613
1266.07276280246,22.58064516129032
1267.0728202770274,9.677419354838708
1268.072877751595,3.225806451612903
1269.0729352261626,-16.129032258064516
1270.07299270073,-22.58064516129032
1271.0730501752976,-22.58064516129032
1272.073107649865,-32.25806451612903
1273.0731651244325,-32.25806451612903
1274.073222599,-6.451612903225806
1275.0732800735675,3.225806451612903
1276.073337548135,12.903225806451612
1277.0733950227025,9.677419354838708
1278.07345249727,22.58064516129032
1279.0735099718374,29.03225806451613
1280.073567446405,41.935483870967744
1281.0736249209726,38.70967741935483
1282.0736823955401,29.03225806451613
1283.0737398701076,16.129032258064516
1284.073797344675,3.225806451612903
1285.0738548192426,0.0
1286.07391229381,-9.677419354838708
1287.0739697683775,-19.354838709677416
1288.074027242945,-25.806451612903224
1289.0740847175125,-25.806451612903224
1290.07414219208,-22.58064516129032
1291.0741996666475,-3.225806451612903
1292.0742571412152,3.225806451612903
1293.0743146157827,9.677419354838708
1294.0743720903502,12.903225806451612
1295.0744295649176,22.58064516129032
1296.0744870394851,32.25806451612903
1297.0745445140526,38.70967741935483
1298.07460198862,38.70967741935483
1299.0746594631876,22.58064516129032
1300.074716937755,12.903225806451612
1301.0747744123225,3.225806451612903
1302.07483188689,-6.451612903225806
1303.0748893614577,-12.903225806451612
1304.0749468360252,-16.129032258064516
1305.0750043105927,-25.806451612903224
1306.0750617851602,-25.806451612903224
1307.0751192597277,-12.903225806451612
1308.0751767342952,-3.225806451612903
1309.0752342088626,16.129032258064516
1310.0752916834301,22.58064516129032
1311.0753491579976,25.806451612903224
1312.075406632565,25.806451612903224
1313.0754641071326,35.483870967741936
1314.0755215817,35.483870967741936
1315.0755790562678,29.03225806451613
1316.0756365308353,9.677419354838708
1317.0756940054027,3.225806451612903
1318.0757514799702,-6.451612903225806
1319.0758089545377,-6.451612903225806
1320.0758664291052,-9.677419354838708
1321.0759239036727,-19.354838709677416
1322.0759813782402,-25.806451612903224
1323.0760388528076,-16.129032258064516
1324.0760963273751,-16.129032258064516
1325.0761538019426,0.0
1326.0762112765103,12.903225806451612
1327.0762687510778,16.129032258064516
1328.0763262256453,25.806451612903224
1329.0763837002128,25.806451612903224
1330.0764411747803,38.70967741935483
1331.0764986493477,41.935483870967744
1332.0765561239152,22.58064516129032
1333.0766135984827,16.129032258064516
1334.0766710730502,6.451612903225806
1335.0767285476177,-3.225806451612903
1336.0767860221852,-6.451612903225806
1337.0768434967529,-16.129032258064516
1338.0769009713204,-22.58064516129032
1339.0769584458878,-25.806451612903224
1340.0770159204553,-12.903225806451612
1341.0770733950228,0.0
1342.0771308695903,6.451612903225806
1343.0771883441578,12.903225806451612
1344.0772458187253,19.354838709677416
1345.0773032932927,22.58064516129032
1346.0773607678602,29.03225806451613
1347.0774182424277,38.70967741935483
1348.0774757169952,35.483870967741936
1349.077533191563,19.354838709677416
1350.0775906661304,3.225806451612903
1351.0776481406979,-3.225806451612903
1352.0777056152654,-9.677419354838708
1353.0777630898328,-16.129032258064516
1354.0778205644003,-19.354838709677416
1355.0778780389678,-16.129032258064516
1356.0779355135353,-22.58064516129032
1357.0779929881028,-12.903225806451612
1358.0780504626703,0.0
1359.0781079372377,9.677419354838708
1360.0781654118055,19.354838709677416
1361.078222886373,19.354838709677416
1362.0782803609404,25.806451612903224
1363.078337835508,35.483870967741936
1364.0783953100754,38.70967741935483
1365.0784527846429,29.03225806451613
1366.0785102592104,22.58064516129032
1367.0785677337778,9.677419354838708
1368.0786252083453,-3.225806451612903
1369.0786826829128,-16.129032258064516
1370.0787401574803,-9.677419354838708
1371.0787976320478,-12.903225806451612
1372.0788551066155,-35.483870967741936
1373.078912581183,-19.354838709677416
1374.0789700557505,-9.677419354838708
1375.079027530318,6.451612903225806
1376.0790850048854,16.129032258064516
1377.079142479453,19.354838709677416
1378.0791999540204,19.354838709677416
1379.0792574285879,29.03225806451613
1380.0793149031554,38.70967741935483
1381.0793723777228,41.935483870967744
1382.0794298522903,22.58064516129032
1383.079487326858,19.354838709677416
1384.0795448014255,-6.451612903225806
1385.079602275993,-16.129032258064516
1386.0796597505605,-12.903225806451612
1387.079717225128,-19.354838709677416
1388.0797746996955,-22.58064516129032
1389.079832174263,-25.806451612903224
1390.0798896488304,-12.903225806451612
1391.079947123398,-6.451612903225806
1392.0800045979654,6.451612903225806
1393.0800620725329,6.451612903225806
1394.0801195471006,16.129032258064516
1395.080177021668,22.58064516129032
1396.0802344962356,38.70967741935483
1397.080291970803,41.935483870967744
1398.0803494453705,35.483870967741936
1399.080406919938,19.354838709677416
1400.0804643945055,9.677419354838708
1401.080521869073,3.225806451612903
1402.0805793436405,-9.677419354838708
1403.080636818208,-9.677419354838708
1404.0806942927754,-19.354838709677416
1405.080751767343,-22.58064516129032
1406.0808092419106,-25.806451612903224
1407.080866716478,-16.129032258064516
1408.0809241910456,-6.451612903225806
1409.080981665613,9.677419354838708
1410.0810391401806,16.129032258064516
1411.081096614748,16.129032258064516
1412.0811540893155,25.806451612903224
1413.081211563883,35.483870967741936
1414.0812690384505,38.70967741935483
1415.081326513018,32.25806451612903
1416.0813839875855,19.354838709677416
1417.0814414621532,0.0
1418.0814989367207,-9.677419354838708
1419.0815564112881,-6.451612903225806
1420.0816138858556,-12.903225806451612
1421.0816713604231,-16.129032258064516
1422.0817288349906,-29.03225806451613
1423.081786309558,-25.806451612903224
1424.0818437841256,-9.677419354838708
1425.081901258693,6.451612903225806
1426.0819587332605,16.129032258064516
1427.082016207828,22.58064516129032
1428.0820736823957,19.354838709677416
1429.0821311569632,35.483870967741936
1430.0821886315307,38.70967741935483
1431.0822461060982,41.935483870967744
1432.0823035806657,25.806451612903224
1433.0823610552332,16.129032258064516
1434.0824185298006,-3.225806451612903
1435.0824760043681,-3.225806451612903
1436.0825334789356,-9.677419354838708
1437.082590953503,-9.677419354838708
1438.0826484280706,-25.806451612903224
1439.082705902638,-29.03225806451613
1440.0827633772058,-22.58064516129032
1441.0828208517732,-6.451612903225806
1442.0828783263407,3.225806451612903
1443.0829358009082,19.354838709677416
1444.0829932754757,19.354838709677416
1445.0830507500432,22.58064516129032
1446.0831082246107,38.70967741935483
1447.0831656991782,38.70967741935483
1448.0832231737456,32.25806451612903
1449.0832806483131,19.354838709677416
1450.0833381228806,16.129032258064516
1451.0833955974483,3.225806451612903
1452.0834530720158,-9.677419354838708
1453.0835105465833,-12.903225806451612
1454.0835680211508,-16.129032258064516
1455.0836254957183,-19.354838709677416
1456.0836829702857,-25.806451612903224
1457.0837404448532,-12.903225806451612
1458.0837979194207,0.0
1459.0838553939882,9.677419354838708
1460.0839128685557,16.129032258064516
1461.0839703431232,9.677419354838708
1462.0840278176906,22.58064516129032
1463.0840852922584,38.70967741935483
1464.0841427668258,35.483870967741936
1465.0842002413933,32.25806451612903
1466.0842577159608,22.58064516129032
1467.0843151905283,3.225806451612903
1468.0843726650958,0.0
1469.0844301396633,-16.129032258064516
1470.0844876142307,-9.677419354838708
1471.0845450887982,-16.129032258064516
1472.0846025633657,-25.806451612903224
1473.0846600379332,-22.58064516129032
1474.084717512501,-3.225806451612903
1475.0847749870684,6.451612903225806
1476.0848324616359,19.354838709677416
1477.0848899362034,9.677419354838708
1478.0849474107708,12.903225806451612
1479.0850048853383,25.806451612903224
1480.0850623599058,45.16129032258064
1481.0851198344733,38.70967741935483
1482.0851773090408,22.58064516129032
1483.0852347836083,16.129032258064516
1484.0852922581757,0.0
1485.0853497327435,0.0
1486.085407207311,-9.677419354838708
1487.0854646818784,-12.903225806451612
1488.085522156446,-19.354838709677416
1489.0855796310134,-25.806451612903224
1490.0856371055809,-12.903225806451612
1491.0856945801484,0.0
1492.0857520547158,9.677419354838708
1493.0858095292833,12.903225806451612
1494.0858670038508,16.129032258064516
1495.0859244784183,22.58064516129032
1496.0859819529858,38.70967741935483
1497.0860394275535,32.25806451612903
1498.086096902121,29.03225806451613
1499.0861543766885,16.129032258064516
1500.086211851256,16.129032258064516
1501.0862693258234,0.0
1502.086326800391,-12.903225806451612
1503.0863842749584,-19.354838709677416
1504.0864417495259,-12.903225806451612
1505.0864992240934,-25.806451612903224
1506.0865566986608,-22.58064516129032
1507.0866141732283,-16.129032258064516
1508.086671647796,-6.451612903225806
1509.0867291223635,9.677419354838708
1510.086786596931,16.129032258064516
1511.0868440714985,25.806451612903224
1512.086901546066,29.03225806451613
1513.0869590206335,38.70967741935483
1514.087016495201,45.16129032258064
1515.0870739697684,32.25806451612903
1516.087131444336,19.354838709677416
1517.0871889189034,6.451612903225806
1518.0872463934709,-9.677419354838708
1519.0873038680386,-12.903225806451612
1520.087361342606,-12.903225806451612
1521.0874188171736,-19.354838709677416
1522.087476291741,-32.25806451612903
1523.0875337663085,-19.354838709677416
1524.087591240876,-9.677419354838708
1525.0876487154435,3.225806451612903
1526.087706190011,6.451612903225806
1527.0877636645785,16.129032258064516
1528.087821139146,19.354838709677416
1529.0878786137134,29.03225806451613
1530.087936088281,41.935483870967744
1531.0879935628486,41.935483870967744
1532.088051037416,22.58064516129032
1533.0881085119836,16.129032258064516
1534.088165986551,-6.451612903225806
1535.0882234611186,-9.677419354838708
1536.088280935686,-9.677419354838708
1537.0883384102535,-16.129032258064516
1538.088395884821,-16.129032258064516
1539.0884533593885,-22.58064516129032
1540.088510833956,-16.129032258064516
1541.0885683085235,3.225806451612903
1542.0886257830912,3.225806451612903
1543.0886832576587,12.903225806451612
1544.0887407322261,9.677419354838708
1545.0887982067936,22.58064516129032
1546.088855681361,38.70967741935483
1547.0889131559286,35.483870967741936
1548.088970630496,35.483870967741936
1549.0890281050636,22.58064516129032
1550.089085579631,16.129032258064516
1551.0891430541985,0.0
1552.089200528766,-9.677419354838708
1553.0892580033335,-12.903225806451612
1554.0893154779012,-19.354838709677416
1555.0893729524687,-25.806451612903224
1556.0894304270362,-19.354838709677416
1557.0894879016037,-9.677419354838708
1558.0895453761711,-6.451612903225806
1559.0896028507386,9.677419354838708
1560.089660325306,19.354838709677416
1561.0897177998736,25.806451612903224
1562.089775274441,25.806451612903224
1563.0898327490086,41.935483870967744
1564.089890223576,48.387096774193544
1565.0899476981438,29.03225806451613
1566.0900051727112,19.354838709677416
1567.0900626472787,3.225806451612903
1568.0901201218462,-9.677419354838708
1569.0901775964137,-16.129032258064516
1570.0902350709812,-16.129032258064516
1571.0902925455487,-19.354838709677416
1572.0903500201161,-25.806451612903224
1573.0904074946836,-16.129032258064516
1574.0904649692511,-9.677419354838708
1575.0905224438186,-3.225806451612903
1576.0905799183863,12.903225806451612
1577.0906373929538,16.129032258064516
1578.0906948675213,19.354838709677416
1579.0907523420888,41.935483870967744
1580.0908098166562,41.935483870967744
1581.0908672912237,38.70967741935483
1582.0909247657912,22.58064516129032
1583.0909822403587,12.903225806451612
1584.0910397149262,3.225806451612903
1585.0910971894937,-12.903225806451612
1586.0911546640612,-9.677419354838708
1587.0912121386286,-9.677419354838708
1588.0912696131963,-22.58064516129032
1589.0913270877638,-22.58064516129032
1590.0913845623313,-12.903225806451612
1591.0914420368988,-3.225806451612903
1592.0914995114663,6.451612903225806
1593.0915569860338,22.58064516129032
1594.0916144606012,16.129032258064516
1595.0916719351687,25.806451612903224
1596.0917294097362,25.806451612903224
1597.0917868843037,38.70967741935483
1598.0918443588712,38.70967741935483
1599.091901833439,22.58064516129032
1600.0919593080064,9.677419354838708
1601.0920167825739,3.225806451612903
1602.0920742571413,-12.903225806451612
1603.0921317317088,-12.903225806451612
1604.0921892062763,-19.354838709677416
1605.0922466808438,-22.58064516129032
1606.0923041554113,-25.806451612903224
1607.0923616299788,-16.129032258064516
1608.0924191045463,3.225806451612903
1609.0924765791137,9.677419354838708
1610.0925340536814,12.903225806451612
1611.092591528249,19.354838709677416
1612.0926490028164,22.58064516129032
1613.092706477384,38.70967741935483
1614.0927639519514,38.70967741935483
1615.0928214265189,25.806451612903224
1616.0928789010864,19.354838709677416
1617.0929363756538,9.677419354838708
1618.0929938502213,-6.451612903225806
1619.0930513247888,-12.903225806451612
1620.0931087993563,-12.903225806451612
1621.0931662739238,-19.354838709677416
1622.0932237484915,-32.25806451612903
1623.093281223059,-19.354838709677416
1624.0933386976265,-12.903225806451612
1625.093396172194,3.225806451612903
1626.0934536467614,12.903225806451612
1627.093511121329,19.354838709677416
1628.0935685958964,22.58064516129032
1629.0936260704639,32.25806451612903
1630.0936835450314,38.70967741935483
1631.0937410195988,45.16129032258064
1632.0937984941663,22.58064516129032
1633.093855968734,16.129032258064516
1634.0939134433015,-6.451612903225806
1635.093970917869,-6.451612903225806
1636.0940283924365,-6.451612903225806
1637.094085867004,-16.129032258064516
1638.0941433415715,-19.354838709677416
1639.094200816139,-29.03225806451613
1640.0942582907064,-19.354838709677416
1641.094315765274,-9.677419354838708
1642.0943732398414,3.225806451612903
1643.0944307144089,16.129032258064516
1644.0944881889764,19.354838709677416
1645.094545663544,25.806451612903224
1646.0946031381116,38.70967741935483
1647.094660612679,41.935483870967744
1648.0947180872465,29.03225806451613
1649.094775561814,19.354838709677416
1650.0948330363815,3.225806451612903
1651.094890510949,-3.225806451612903
1652.0949479855165,-6.451612903225806
1653.095005460084,-9.677419354838708
1654.0950629346514,-12.903225806451612
1655.095120409219,-25.806451612903224
1656.0951778837866,-25.806451612903224
1657.095235358354,-12.903225806451612
1658.0952928329216,-6.451612903225806
1659.095350307489,9.677419354838708
1660.0954077820566,25.806451612903224
1661.095465256624,22.58064516129032
1662.0955227311915,22.58064516129032
1663.095580205759,41.935483870967744
1664.0956376803265,41.935483870967744
1665.095695154894,29.03225806451613
1666.0957526294615,22.58064516129032
1667.0958101040292,3.225806451612903
1668.0958675785967,-9.677419354838708
1669.0959250531641,-12.903225806451612
1670.0959825277316,-9.677419354838708
1671.096040002299,-12.903225806451612
1672.0960974768666,-32.25806451612903
1673.096154951434,-25.806451612903224
1674.0962124260016,-9.677419354838708
1675.096269900569,6.451612903225806
1676.0963273751365,19.354838709677416
1677.096384849704,19.354838709677416
1678.0964423242715,22.58064516129032
1679.0964997988392,35.483870967741936
1680.0965572734067,41.935483870967744
1681.0966147479742,38.70967741935483
1682.0966722225417,19.354838709677416
1683.0967296971091,19.354838709677416
1684.0967871716766,6.451612903225806
1685.096844646244,-9.677419354838708
1686.0969021208116,-9.677419354838708
1687.096959595379,-16.129032258064516
1688.0970170699466,-25.806451612903224
1689.097074544514,-22.58064516129032
1690.0971320190818,-12.903225806451612
1691.0971894936492,-3.225806451612903
1692.0972469682167,3.225806451612903
1693.0973044427842,12.903225806451612
1694.0973619173517,19.354838709677416
1695.0974193919192,16.129032258064516
1696.0974768664867,32.25806451612903
1697.0975343410541,41.935483870967744
1698.0975918156216,38.70967741935483
1699.097649290189,19.354838709677416
1700.0977067647566,6.451612903225806
1701.0977642393243,0.0
1702.0978217138918,-12.903225806451612
1703.0978791884593,-12.903225806451612
1704.0979366630268,-12.903225806451612
1705.0979941375942,-25.806451612903224
1706.0980516121617,-22.58064516129032
1707.0981090867292,-9.677419354838708
1708.0981665612967,3.225806451612903
1709.0982240358642,9.677419354838708
1710.0982815104317,19.354838709677416
1711.0983389849991,22.58064516129032
1712.0983964595666,29.03225806451613
1713.0984539341343,41.935483870967744
1714.0985114087018,32.25806451612903
1715.0985688832693,25.806451612903224
1716.0986263578368,12.903225806451612
1717.0986838324043,3.225806451612903
1718.0987413069718,-3.225806451612903
1719.0987987815392,-9.677419354838708
1720.0988562561067,-16.129032258064516
1721.0989137306742,-16.129032258064516
1722.0989712052417,-22.58064516129032
1723.0990286798092,-12.903225806451612
1724.099086154377,-9.677419354838708
1725.0991436289444,3.225806451612903
1726.0992011035119,9.677419354838708
1727.0992585780793,9.677419354838708
1728.0993160526468,22.58064516129032
1729.0993735272143,29.03225806451613
1730.0994310017818,41.935483870967744
1731.0994884763493,41.935483870967744
1732.0995459509168,22.58064516129032
1733.0996034254842,22.58064516129032
1734.0996609000517,3.225806451612903
1735.0997183746192,-9.677419354838708
1736.099775849187,-6.451612903225806
1737.0998333237544,-12.903225806451612
1738.099890798322,-22.58064516129032
1739.0999482728894,-25.806451612903224
1740.1000057474569,-19.354838709677416
1741.1000632220243,0.0
1742.1001206965918,6.451612903225806
1743.1001781711593,12.903225806451612
1744.1002356457268,19.354838709677416
1745.1002931202943,22.58064516129032
1746.1003505948618,38.70967741935483
1747.1004080694295,41.935483870967744
1748.100465543997,32.25806451612903
1749.1005230185644,22.58064516129032
1750.100580493132,9.677419354838708
1751.1006379676994,3.225806451612903
1752.100695442267,-12.903225806451612
1753.1007529168344,-9.677419354838708
1754.1008103914019,-16.129032258064516
1755.1008678659693,-35.483870967741936
1756.1009253405368,-29.03225806451613
1757.1009828151043,-19.354838709677416
1758.101040289672,0.0
1759.1010977642395,6.451612903225806
1760.101155238807,12.903225806451612
1761.1012127133745,19.354838709677416
1762.101270187942,25.806451612903224
1763.1013276625094,38.70967741935483
1764.101385137077,41.935483870967744
1765.1014426116444,32.25806451612903
1766.101500086212,19.354838709677416
1767.1015575607794,6.451612903225806
1768.1016150353469,-6.451612903225806
1769.1016725099144,-9.677419354838708
1770.101729984482,-19.354838709677416
1771.1017874590495,-16.129032258064516
1772.101844933617,-29.03225806451613
1773.1019024081845,-16.129032258064516
1774.101959882752,-9.677419354838708
1775.1020173573195,3.225806451612903
1776.102074831887,12.903225806451612
1777.1021323064545,22.58064516129032
1778.102189781022,22.58064516129032
1779.1022472555894,25.806451612903224
1780.102304730157,41.935483870967744
1781.1023622047246,41.935483870967744
1782.102419679292,22.58064516129032
1783.1024771538596,9.677419354838708
1784.102534628427,0.0
1785.1025921029945,-9.677419354838708
1786.102649577562,-9.677419354838708
1787.1027070521295,-19.354838709677416
1788.102764526697,-22.58064516129032
1789.1028220012645,-22.58064516129032
1790.102879475832,-16.129032258064516
1791.1029369503995,-6.451612903225806
1792.1029944249672,3.225806451612903
1793.1030518995346,12.903225806451612
1794.1031093741021,16.129032258064516
1795.1031668486696,25.806451612903224
1796.103224323237,35.483870967741936
1797.1032817978046,41.935483870967744
1798.103339272372,29.03225806451613
1799.1033967469396,29.03225806451613
1800.103454221507,9.677419354838708
1801.1035116960745,3.225806451612903
1802.103569170642,-3.225806451612903
1803.1036266452095,-6.451612903225806
1804.1036841197772,-12.903225806451612
1805.1037415943447,-25.806451612903224
1806.1037990689122,-22.58064516129032
1807.1038565434797,-9.677419354838708
1808.1039140180471,0.0
1809.1039714926146,6.451612903225806
1810.104028967182,16.129032258064516
1811.1040864417496,19.354838709677416
1812.104143916317,25.806451612903224
1813.1042013908846,38.70967741935483
1814.104258865452,35.483870967741936
1815.1043163400197,25.806451612903224
1816.1043738145872,16.129032258064516
1817.1044312891547,0.0
1818.1044887637222,-6.451612903225806
1819.1045462382897,-12.903225806451612
1820.1046037128572,-16.129032258064516
1821.1046611874247,-12.903225806451612
1822.1047186619921,-19.354838709677416
1823.1047761365596,-19.354838709677416
1824.104833611127,0.0
1825.1048910856946,9.677419354838708
1826.104948560262,16.129032258064516
1827.1050060348298,12.903225806451612
1828.1050635093973,22.58064516129032
1829.1051209839648,32.25806451612903
1830.1051784585322,32.25806451612903
1831.1052359330997,32.25806451612903
1832.1052934076672,25.806451612903224
1833.1053508822347,16.129032258064516
1834.1054083568022,-3.225806451612903
1835.1054658313697,-9.677419354838708
1836.1055233059371,-9.677419354838708
1837.1055807805046,-12.903225806451612
1838.1056382550723,-25.806451612903224
1839.1056957296398,-22.58064516129032
1840.1057532042073,-12.903225806451612
1841.1058106787748,0.0
1842.1058681533423,3.225806451612903
1843.1059256279098,16.129032258064516
1844.1059831024772,19.354838709677416
1845.1060405770447,29.03225806451613
1846.1060980516122,38.70967741935483
1847.1061555261797,45.16129032258064
1848.1062130007472,32.25806451612903
1849.106270475315,19.354838709677416
1850.1063279498824,3.225806451612903
1851.1063854244499,0.0
1852.1064428990173,-9.677419354838708
1853.1065003735848,-9.677419354838708
1854.1065578481523,-19.354838709677416
1855.1066153227198,-22.58064516129032
1856.1066727972873,-16.129032258064516
1857.1067302718548,-19.354838709677416
1858.1067877464222,0.0
1859.1068452209897,9.677419354838708
1860.1069026955572,19.354838709677416
1861.106960170125,16.129032258064516
1862.1070176446924,29.03225806451613
1863.10707511926,45.16129032258064
1864.1071325938274,38.70967741935483
1865.1071900683949,35.483870967741936
1866.1072475429623,16.129032258064516
1867.1073050175298,-9.677419354838708
1868.1073624920973,-9.677419354838708
1869.1074199666648,-12.903225806451612
1870.1074774412323,-9.677419354838708
1871.1075349157998,-19.354838709677416
1872.1075923903675,-32.25806451612903
1873.107649864935,-19.354838709677416
1874.1077073395024,-12.903225806451612
1875.10776481407,0.0
1876.1078222886374,16.129032258064516
1877.107879763205,16.129032258064516
1878.1079372377724,19.354838709677416
1879.1079947123399,32.25806451612903
1880.1080521869073,38.70967741935483
1881.1081096614748,41.935483870967744
1882.1081671360423,25.806451612903224
1883.1082246106098,6.451612903225806
1884.1082820851775,6.451612903225806
1885.108339559745,-6.451612903225806
1886.1083970343125,-9.677419354838708
1887.10845450888,-16.129032258064516
1888.1085119834474,-16.129032258064516
1889.108569458015,-22.58064516129032
1890.1086269325824,-16.129032258064516
1891.10868440715,-3.225806451612903
1892.1087418817174,6.451612903225806
1893.1087993562849,9.677419354838708
1894.1088568308523,16.129032258064516
1895.10891430542,22.58064516129032
1896.1089717799875,35.483870967741936
1897.109029254555,41.935483870967744
1898.1090867291225,29.03225806451613
1899.10914420369,19.354838709677416
1900.1092016782575,9.677419354838708
1901.109259152825,-3.225806451612903
1902.1093166273924,-12.903225806451612
1903.10937410196,-12.903225806451612
1904.1094315765274,-16.129032258064516
1905.109489051095,-32.25806451612903
1906.1095465256626,-19.354838709677416
1907.10960400023,-9.677419354838708
1908.1096614747976,3.225806451612903
1909.109718949365,9.677419354838708
1910.1097764239325,12.903225806451612
1911.1098338985,16.129032258064516
1912.1098913730675,22.58064516129032
1913.109948847635,35.483870967741936
1914.1100063222025,38.70967741935483
1915.11006379677,25.806451612903224
1916.1101212713374,12.903225806451612
1917.110178745905,0.0
1918.1102362204726,-6.451612903225806
1919.1102936950401,-12.903225806451612
1920.1103511696076,-16.129032258064516
1921.110408644175,-12.903225806451612
1922.1104661187426,-29.03225806451613
1923.11052359331,-16.129032258064516
1924.1105810678775,-3.225806451612903
1925.110638542445,6.451612903225806
1926.1106960170125,12.903225806451612
1927.11075349158,19.354838709677416
1928.1108109661475,19.354838709677416
1929.1108684407152,29.03225806451613
1930.1109259152827,38.70967741935483
1931.1109833898502,38.70967741935483
1932.1110408644176,19.354838709677416
1933.1110983389851,12.903225806451612
1934.1111558135526,0.0
1935.11121328812,-9.677419354838708
1936.1112707626876,-12.903225806451612
1937.111328237255,-19.354838709677416
1938.1113857118225,-25.806451612903224
1939.11144318639,-25.806451612903224
1940.1115006609577,-16.129032258064516
1941.1115581355252,0.0
1942.1116156100927,12.903225806451612
1943.1116730846602,16.129032258064516
1944.1117305592277,22.58064516129032
1945.1117880337952,25.806451612903224
1946.1118455083626,38.70967741935483
1947.1119029829301,38.70967741935483
1948.1119604574976,35.483870967741936
1949.112017932065,25.806451612903224
1950.1120754066326,6.451612903225806
1951.1121328812,0.0
1952.1121903557678,-9.677419354838708
1953.1122478303353,-9.677419354838708
1954.1123053049027,-16.129032258064516
1955.1123627794702,-22.58064516129032
1956.1124202540377,-25.806451612903224
1957.1124777286052,-9.677419354838708
1958.1125352031727,-3.225806451612903
1959.1125926777402,9.677419354838708
1960.1126501523077,19.354838709677416
1961.1127076268751,22.58064516129032
1962.1127651014426,25.806451612903224
1963.1128225760103,35.483870967741936
1964.1128800505778,35.483870967741936
1965.1129375251453,29.03225806451613
1966.1129949997128,19.354838709677416
1967.1130524742803,-6.451612903225806
1968.1131099488478,-3.225806451612903
1969.1131674234152,-9.677419354838708
1970.1132248979827,-12.903225806451612
1971.1132823725502,-16.129032258064516
1972.1133398471177,-25.806451612903224
1973.1133973216852,-9.677419354838708
1974.1134547962527,-6.451612903225806
1975.1135122708204,6.451612903225806
1976.1135697453878,16.129032258064516
1977.1136272199553,19.354838709677416
1978.1136846945228,16.129032258064516
1979.1137421690903,29.03225806451613
1980.1137996436578,48.387096774193544
1981.1138571182253,41.935483870967744
1982.1139145927928,19.354838709677416
1983.1139720673602,12.903225806451612
1984.1140295419277,-9.677419354838708
1985.1140870164952,-12.903225806451612
1986.114144491063,-9.677419354838708
1987.1142019656304,-22.58064516129032
1988.1142594401979,-19.354838709677416
1989.1143169147654,-16.129032258064516
1990.1143743893329,-19.354838709677416
1991.1144318639003,3.225806451612903
1992.1144893384678,9.677419354838708
1993.1145468130353,16.129032258064516
1994.1146042876028,16.129032258064516
1995.1146617621703,29.03225806451613
1996.1147192367378,32.25806451612903
1997.1147767113055,41.935483870967744
1998.114834185873,25.806451612903224
1999.1148916604404,16.129032258064516
2000.114949135008,3.225806451612903
2001.1150066095754,3.225806451612903
2002.115064084143,-9.677419354838708
2003.1151215587104,-16.129032258064516
2004.1151790332779,-16.129032258064516
2005.1152365078453,-22.58064516129032
2006.1152939824128,-22.58064516129032
2007.1153514569803,-9.677419354838708
2008.1154089315478,3.225806451612903
2009.1154664061155,9.677419354838708
2010.115523880683,16.129032258064516
2011.1155813552505,29.03225806451613
2012.115638829818,29.03225806451613
2013.1156963043854,35.483870967741936
2014.115753778953,35.483870967741936
2015.1158112535204,25.806451612903224
2016.115868728088,16.129032258064516
2017.1159262026554,-3.225806451612903
2018.1159836772229,-9.677419354838708
2019.1160411517903,-16.129032258064516
2020.116098626358,-12.903225806451612
2021.1161561009255,-16.129032258064516
2022.116213575493,-22.58064516129032
2023.1162710500605,-16.129032258064516
2024.116328524628,-6.451612903225806
2025.1163859991955,3.225806451612903
2026.116443473763,16.129032258064516
2027.1165009483304,19.354838709677416
2028.116558422898,19.354838709677416
2029.1166158974654,32.25806451612903
2030.116673372033,41.935483870967744
2031.1167308466006,35.483870967741936
2032.116788321168,19.354838709677416
2033.1168457957356,19.354838709677416
2034.116903270303,0.0
2035.1169607448705,-6.451612903225806
2036.117018219438,-16.129032258064516
2037.1170756940055,-16.129032258064516
2038.117133168573,-22.58064516129032
2039.1171906431405,-25.806451612903224
2040.117248117708,-16.129032258064516
2041.1173055922754,3.225806451612903
2042.117363066843,6.451612903225806
2043.1174205414106,12.903225806451612
2044.1174780159781,12.903225806451612
2045.1175354905456,22.58064516129032
2046.117592965113,35.483870967741936
2047.1176504396806,38.70967741935483
2048.117707914248,29.03225806451613
2049.1177653888158,16.129032258064516
2050.117822863383,9.677419354838708
2051.1178803379507,0.0
2052.117937812518,-12.903225806451612
2053.1179952870857,-9.677419354838708
2054.118052761653,-19.354838709677416
2055.1181102362207,-19.354838709677416
2056.118167710788,-12.903225806451612
2057.1182251853556,-9.677419354838708
2058.118282659923,3.225806451612903
2059.1183401344906,6.451612903225806
2060.1183976090583,22.58064516129032
2061.1184550836256,29.03225806451613
2062.1185125581933,25.806451612903224
2063.1185700327605,41.935483870967744
2064.1186275073283,38.70967741935483
2065.1186849818955,25.806451612903224
2066.118742456463,16.129032258064516
2067.1187999310305,3.225806451612903
2068.118857405598,-3.225806451612903
2069.1189148801654,-16.129032258064516
2070.118972354733,-19.354838709677416
2071.119029829301,-22.58064516129032
2072.119087303868,-25.806451612903224
2073.119144778436,-19.354838709677416
2074.119202253003,-6.451612903225806
2075.119259727571,3.225806451612903
2076.119317202138,16.129032258064516
2077.119374676706,25.806451612903224
2078.119432151273,19.354838709677416
2079.1194896258407,29.03225806451613
2080.119547100408,38.70967741935483
2081.1196045749757,38.70967741935483
2082.119662049543,19.354838709677416
2083.1197195241107,12.903225806451612
2084.1197769986784,-3.225806451612903
2085.1198344732456,-9.677419354838708
2086.1198919478134,-12.903225806451612
2087.1199494223806,-12.903225806451612
2088.1200068969483,-22.58064516129032
2089.1200643715156,-22.58064516129032
2090.1201218460833,-16.129032258064516
2091.1201793206505,3.225806451612903
2092.1202367952183,0.0
2093.1202942697855,12.903225806451612
2094.1203517443532,16.129032258064516
2095.120409218921,19.354838709677416
2096.120466693488,38.70967741935483
2097.120524168056,41.935483870967744
2098.120581642623,35.483870967741936
2099.120639117191,19.354838709677416
2100.120696591758,3.225806451612903
2101.120754066326,6.451612903225806
2102.120811540893,-6.451612903225806
2103.120869015461,-16.129032258064516
2104.120926490028,-12.903225806451612
2105.120983964596,-29.03225806451613
2106.1210414391635,-22.58064516129032
2107.1210989137307,-9.677419354838708
2108.1211563882985,3.225806451612903
2109.1212138628657,12.903225806451612
2110.1212713374334,22.58064516129032
2111.1213288120007,16.129032258064516
2112.1213862865684,22.58064516129032
2113.1214437611357,38.70967741935483
2114.1215012357034,41.935483870967744
2115.1215587102706,29.03225806451613
2116.1216161848383,12.903225806451612
2117.121673659406,0.0
2118.1217311339733,0.0
2119.121788608541,-16.129032258064516
2120.1218460831083,-16.129032258064516
2121.121903557676,-19.354838709677416
2122.1219610322432,-22.58064516129032
2123.122018506811,-9.677419354838708
2124.122075981378,-12.903225806451612
2125.122133455946,3.225806451612903
2126.122190930513,16.129032258064516
2127.122248405081,16.129032258064516
2128.1223058796486,25.806451612903224
2129.122363354216,25.806451612903224
2130.1224208287836,38.70967741935483
2131.122478303351,35.483870967741936
2132.1225357779185,29.03225806451613
2133.122593252486,16.129032258064516
2134.1226507270535,0.0
2135.1227082016208,-6.451612903225806
2136.1227656761885,-6.451612903225806
2137.1228231507557,-16.129032258064516
2138.1228806253234,-25.806451612903224
2139.1229380998907,-29.03225806451613
2140.1229955744584,-16.129032258064516
2141.123053049026,3.225806451612903
2142.1231105235934,9.677419354838708
2143.123167998161,19.354838709677416
2144.1232254727283,16.129032258064516
2145.123282947296,25.806451612903224
2146.1233404218633,38.70967741935483
2147.123397896431,41.935483870967744
2148.1234553709983,35.483870967741936
2149.123512845566,19.354838709677416
2150.1235703201332,3.225806451612903
2151.123627794701,-9.677419354838708
2152.1236852692687,-12.903225806451612
2153.123742743836,-16.129032258064516
2154.1238002184036,-16.129032258064516
2155.123857692971,-19.354838709677416
2156.1239151675386,-16.129032258064516
2157.123972642106,-12.903225806451612
2158.1240301166736,0.0
2159.124087591241,12.903225806451612
2160.1241450658085,19.354838709677416
2161.124202540376,16.129032258064516
2162.1242600149435,29.03225806451613
2163.124317489511,38.70967741935483
2164.1243749640785,38.70967741935483
2165.124432438646,32.25806451612903
2166.1244899132134,19.354838709677416
2167.124547387781,-3.225806451612903
2168.1246048623484,-3.225806451612903
2169.124662336916,-12.903225806451612
2170.1247198114834,-9.677419354838708
2171.124777286051,-19.354838709677416
2172.1248347606183,-32.25806451612903
2173.124892235186,-16.129032258064516
2174.1249497097538,-9.677419354838708
2175.125007184321,3.225806451612903
2176.1250646588887,16.129032258064516
2177.125122133456,19.354838709677416
2178.1251796080237,29.03225806451613
2179.125237082591,32.25806451612903
2180.1252945571587,41.935483870967744
2181.125352031726,35.483870967741936
2182.1254095062936,19.354838709677416
2183.125466980861,6.451612903225806
2184.1255244554286,0.0
2185.1255819299963,-3.225806451612903
2186.1256394045636,-12.903225806451612
2187.1256968791313,-16.129032258064516
2188.1257543536985,-25.806451612903224
2189.1258118282663,-25.806451612903224
2190.1258693028335,-12.903225806451612
2191.125926777401,3.225806451612903
2192.1259842519685,6.451612903225806
2193.126041726536,16.129032258064516
2194.1260992011034,16.129032258064516
2195.126156675671,19.354838709677416
2196.126214150239,29.03225806451613
2197.126271624806,38.70967741935483
2198.126329099374,29.03225806451613
2199.126386573941,19.354838709677416
2200.126444048509,3.225806451612903
2201.126501523076,-3.225806451612903
2202.1265589976438,-12.903225806451612
2203.126616472211,-9.677419354838708
2204.1266739467787,-9.677419354838708
2205.126731421346,-19.354838709677416
2206.1267888959137,-22.58064516129032
2207.126846370481,-9.677419354838708
2208.1269038450487,0.0
2209.1269613196164,9.677419354838708
2210.1270187941836,16.129032258064516
2211.1270762687514,22.58064516129032
2212.1271337433186,22.58064516129032
2213.1271912178863,38.70967741935483
2214.1272486924536,38.70967741935483
2215.1273061670213,25.806451612903224
2216.1273636415885,19.354838709677416
2217.1274211161563,-3.225806451612903
2218.1274785907235,-6.451612903225806
2219.127536065291,-9.677419354838708
2220.127593539859,-12.903225806451612
2221.127651014426,-16.129032258064516
2222.127708488994,-29.03225806451613
2223.127765963561,-16.129032258064516
2224.127823438129,-3.225806451612903
2225.127880912696,9.677419354838708
2226.127938387264,12.903225806451612
2227.127995861831,12.903225806451612
2228.128053336399,19.354838709677416
2229.128110810966,38.70967741935483
2230.128168285534,51.61290322580645
2231.1282257601015,41.935483870967744
2232.1282832346687,25.806451612903224
2233.1283407092365,3.225806451612903
2234.1283981838037,3.225806451612903
2235.1284556583714,-6.451612903225806
2236.1285131329387,-9.677419354838708
2237.1285706075064,-16.129032258064516
2238.1286280820736,-22.58064516129032
2239.1286855566414,-19.354838709677416
2240.1287430312086,-12.903225806451612
2241.1288005057763,3.225806451612903
2242.128857980344,3.225806451612903
2243.1289154549113,12.903225806451612
2244.128972929479,16.129032258064516
2245.1290304040463,25.806451612903224
2246.129087878614,38.70967741935483
2247.1291453531812,45.16129032258064
2248.129202827749,29.03225806451613
2249.129260302316,19.354838709677416
2250.129317776884,6.451612903225806
2251.129375251451,-3.225806451612903
2252.129432726019,-22.58064516129032
2253.1294902005866,-12.903225806451612
2254.129547675154,-25.806451612903224
2255.1296051497216,-22.58064516129032
2256.129662624289,-25.806451612903224
2257.1297200988565,-19.354838709677416
2258.129777573424,3.225806451612903
2259.1298350479915,9.677419354838708
2260.1298925225587,19.354838709677416
2261.1299499971265,22.58064516129032
2262.1300074716937,25.806451612903224
2263.1300649462614,45.16129032258064
2264.1301224208287,38.70967741935483
2265.1301798953964,25.806451612903224
2266.130237369964,16.129032258064516
2267.1302948445314,3.225806451612903
2268.130352319099,-6.451612903225806
2269.1304097936663,-12.903225806451612
2270.130467268234,-16.129032258064516
2271.1305247428013,-22.58064516129032
2272.130582217369,-32.25806451612903
2273.1306396919363,-6.451612903225806
2274.130697166504,3.225806451612903
2275.1307546410712,9.677419354838708
2276.130812115639,12.903225806451612
2277.1308695902067,19.354838709677416
2278.130927064774,22.58064516129032
2279.1309845393416,29.03225806451613
2280.131042013909,41.935483870967744
2281.1310994884766,45.16129032258064
2282.131156963044,19.354838709677416
2283.1312144376116,16.129032258064516
2284.131271912179,-6.451612903225806
2285.1313293867465,-9.677419354838708
2286.131386861314,-19.354838709677416
2287.1314443358815,-12.903225806451612
2288.131501810449,-22.58064516129032
2289.1315592850165,-19.354838709677416
2290.131616759584,-6.451612903225806
2291.1316742341514,0.0
2292.131731708719,6.451612903225806
2293.1317891832864,16.129032258064516
2294.131846657854,12.903225806451612
2295.1319041324214,22.58064516129032
2296.131961606989,45.16129032258064
2297.1320190815563,32.25806451612903
2298.132076556124,29.03225806451613
2299.1321340306918,19.354838709677416
2300.132191505259,9.677419354838708
2301.1322489798267,0.0
2302.132306454394,-9.677419354838708
2303.1323639289617,-12.903225806451612
2304.132421403529,-22.58064516129032
2305.1324788780967,-29.03225806451613
2306.132536352664,-25.806451612903224
2307.1325938272316,-19.354838709677416
2308.132651301799,0.0
2309.1327087763666,9.677419354838708
2310.1327662509343,19.354838709677416
2311.1328237255016,25.806451612903224
2312.1328812000693,35.483870967741936
2313.1329386746365,41.935483870967744
2314.1329961492042,41.935483870967744
2315.1330536237715,29.03225806451613
2316.133111098339,19.354838709677416
2317.1331685729065,3.225806451612903
2318.133226047474,-6.451612903225806
2319.1332835220414,-9.677419354838708
2320.133340996609,-16.129032258064516
2321.1333984711764,-16.129032258064516
2322.133455945744,-25.806451612903224
2323.133513420312,-12.903225806451612
2324.133570894879,0.0
2325.133628369447,6.451612903225806
2326.133685844014,19.354838709677416
2327.1337433185818,12.903225806451612
2328.133800793149,22.58064516129032
2329.1338582677167,29.03225806451613
2330.133915742284,35.483870967741936
2331.1339732168517,38.70967741935483
2332.134030691419,22.58064516129032
2333.1340881659867,9.677419354838708
2334.1341456405544,-3.225806451612903
2335.1342031151216,-9.677419354838708
2336.1342605896893,-6.451612903225806
2337.1343180642566,-19.354838709677416
2338.1343755388243,-22.58064516129032
2339.1344330133916,-25.806451612903224
2340.1344904879593,-12.903225806451612
2341.1345479625265,-3.225806451612903
2342.1346054370943,6.451612903225806
2343.1346629116615,12.903225806451612
2344.134720386229,19.354838709677416
2345.134777860797,25.806451612903224
2346.134835335364,35.483870967741936
2347.134892809932,48.387096774193544
2348.134950284499,32.25806451612903
2349.135007759067,22.58064516129032
2350.135065233634,6.451612903225806
2351.135122708202,-6.451612903225806
2352.135180182769,-12.903225806451612
2353.135237657337,-19.354838709677416
2354.135295131904,-19.354838709677416
2355.1353526064718,-22.58064516129032
2356.1354100810395,-12.903225806451612
2357.1354675556067,-6.451612903225806
2358.1355250301744,-3.225806451612903
2359.1355825047417,3.225806451612903
2360.1356399793094,12.903225806451612
2361.1356974538767,22.58064516129032
2362.1357549284444,35.483870967741936
2363.1358124030116,41.935483870967744
2364.1358698775794,38.70967741935483
2365.1359273521466,29.03225806451613
2366.1359848267143,19.354838709677416
2367.136042301282,-6.451612903225806
2368.1360997758493,-6.451612903225806
2369.136157250417,-16.129032258064516
2370.1362147249843,-16.129032258064516
2371.136272199552,-19.354838709677416
2372.136329674119,-25.806451612903224
2373.136387148687,-12.903225806451612
2374.136444623254,-12.903225806451612
2375.136502097822,9.677419354838708
2376.136559572389,19.354838709677416
2377.136617046957,12.903225806451612
2378.1366745215246,19.354838709677416
2379.136731996092,32.25806451612903
2380.1367894706596,38.70967741935483
2381.136846945227,45.16129032258064
2382.1369044197945,19.354838709677416
2383.136961894362,9.677419354838708
2384.1370193689295,0.0
2385.1370768434967,-6.451612903225806
2386.1371343180645,-12.903225806451612
2387.1371917926317,-22.58064516129032
2388.1372492671994,-19.354838709677416
2389.1373067417667,-19.354838709677416
2390.1373642163344,-16.129032258064516
2391.137421690902,-6.451612903225806
2392.1374791654694,6.451612903225806
2393.137536640037,16.129032258064516
2394.1375941146043,12.903225806451612
2395.137651589172,22.58064516129032
2396.1377090637393,38.70967741935483
2397.137766538307,41.935483870967744
2398.1378240128743,35.483870967741936
2399.137881487442,16.129032258064516
2400.1379389620092,3.225806451612903
2401.137996436577,-3.225806451612903
2402.1380539111447,-12.903225806451612
2403.138111385712,-12.903225806451612
2404.1381688602796,-16.129032258064516
2405.138226334847,-25.806451612903224
2406.1382838094146,-22.58064516129032
2407.138341283982,-9.677419354838708
2408.1383987585496,6.451612903225806
2409.138456233117,6.451612903225806
2410.1385137076845,19.354838709677416
2411.138571182252,25.806451612903224
2412.1386286568195,25.806451612903224
2413.138686131387,38.70967741935483
2414.1387436059545,32.25806451612903
2415.138801080522,35.483870967741936
2416.1388585550894,16.129032258064516
2417.138916029657,0.0
2418.1389735042244,-3.225806451612903
2419.139030978792,-9.677419354838708
2420.1390884533594,-16.129032258064516
2421.139145927927,-22.58064516129032
2422.1392034024943,-32.25806451612903
2423.139260877062,-19.354838709677416
2424.1393183516298,-6.451612903225806
2425.139375826197,0.0
2426.1394333007647,12.903225806451612
2427.139490775332,12.903225806451612
2428.1395482498997,25.806451612903224
2429.139605724467,35.483870967741936
2430.1396631990347,45.16129032258064
2431.139720673602,45.16129032258064
2432.1397781481696,19.354838709677416
2433.139835622737,9.677419354838708
2434.1398930973046,-3.225806451612903
2435.1399505718723,-9.677419354838708
2436.1400080464396,-6.451612903225806
2437.1400655210073,-16.129032258064516
2438.1401229955745,-29.03225806451613
2439.1401804701422,-22.58064516129032
2440.1402379447095,-12.903225806451612
2441.140295419277,0.0
2442.1403528938445,6.451612903225806
2443.140410368412,16.129032258064516
2444.1404678429794,19.354838709677416
2445.140525317547,29.03225806451613
2446.1405827921144,41.935483870967744
2447.140640266682,35.483870967741936
2448.14069774125,25.806451612903224
2449.140755215817,16.129032258064516
2450.140812690385,9.677419354838708
2451.140870164952,-3.225806451612903
2452.1409276395198,-12.903225806451612
2453.140985114087,-16.129032258064516
2454.1410425886547,-22.58064516129032
2455.141100063222,-25.806451612903224
2456.1411575377897,-19.354838709677416
2457.141215012357,-12.903225806451612
2458.1412724869247,0.0
2459.1413299614924,12.903225806451612
2460.1413874360596,22.58064516129032
2461.1414449106273,19.354838709677416
2462.1415023851946,22.58064516129032
2463.1415598597623,38.70967741935483
2464.1416173343296,35.483870967741936
2465.1416748088973,22.58064516129032
2466.1417322834645,16.129032258064516
2467.1417897580322,3.225806451612903
2468.1418472325995,-3.225806451612903
2469.141904707167,-6.451612903225806
2470.141962181735,-12.903225806451612
2471.142019656302,-19.354838709677416
2472.14207713087,-29.03225806451613
2473.142134605437,-16.129032258064516
2474.142192080005,-6.451612903225806
2475.142249554572,3.225806451612903
2476.14230702914,16.129032258064516
2477.142364503707,16.129032258064516
2478.142421978275,25.806451612903224
2479.142479452842,32.25806451612903
2480.1425369274098,45.16129032258064
2481.1425944019775,41.935483870967744
2482.1426518765447,19.354838709677416
2483.1427093511124,12.903225806451612
2484.1427668256797,-3.225806451612903
2485.1428243002474,-9.677419354838708
2486.1428817748147,-16.129032258064516
2487.1429392493824,-19.354838709677416
2488.1429967239496,-12.903225806451612
2489.1430541985173,-22.58064516129032
2490.1431116730846,-16.129032258064516
2491.1431691476523,3.225806451612903
2492.14322662222,9.677419354838708
2493.1432840967873,22.58064516129032
2494.143341571355,16.129032258064516
2495.1433990459223,22.58064516129032
2496.14345652049,29.03225806451613
2497.143513995057,35.483870967741936
2498.143571469625,35.483870967741936
2499.143628944192,19.354838709677416
2500.14368641876,6.451612903225806
2501.143743893327,-6.451612903225806
2502.143801367895,-12.903225806451612
2503.143858842462,-16.129032258064516
2504.14391631703,-22.58064516129032
2505.1439737915975,-25.806451612903224
2506.144031266165,-12.903225806451612
2507.1440887407325,-9.677419354838708
2508.1441462152998,3.225806451612903
2509.1442036898675,9.677419354838708
2510.1442611644347,22.58064516129032
2511.1443186390024,29.03225806451613
2512.1443761135697,29.03225806451613
2513.1444335881374,35.483870967741936
2514.1444910627047,38.70967741935483
2515.1445485372724,29.03225806451613
2516.14460601184,16.129032258064516
2517.1446634864074,3.225806451612903
2518.144720960975,-9.677419354838708
2519.1447784355423,-9.677419354838708
2520.14483591011,-9.677419354838708
2521.1448933846773,-19.354838709677416
2522.144950859245,-29.03225806451613
2523.1450083338123,-12.903225806451612
2524.14506580838,-3.225806451612903
2525.145123282947,6.451612903225806
2526.145180757515,16.129032258064516
2527.1452382320826,19.354838709677416
2528.14529570665,19.354838709677416
2529.1453531812176,22.58064516129032
2530.145410655785,35.483870967741936
2531.1454681303526,35.483870967741936
2532.14552560492,19.354838709677416
2533.1455830794876,9.677419354838708
2534.145640554055,-6.451612903225806
2535.1456980286225,-9.677419354838708
2536.14575550319,-9.677419354838708
2537.1458129777575,-16.129032258064516
2538.145870452325,-22.58064516129032
2539.1459279268925,-22.58064516129032
2540.14598540146,-9.677419354838708
2541.1460428760274,-3.225806451612903
2542.146100350595,3.225806451612903
2543.1461578251624,16.129032258064516
2544.14621529973,16.129032258064516
2545.1462727742974,22.58064516129032
2546.146330248865,48.387096774193544
2547.1463877234323,48.387096774193544
2548.146445198,32.25806451612903
2549.1465026725677,16.129032258064516
2550.146560147135,6.451612903225806
2551.1466176217027,-6.451612903225806
2552.14667509627,-9.677419354838708
2553.1467325708377,-16.129032258064516
2554.146790045405,-12.903225806451612
2555.1468475199727,-19.354838709677416
2556.14690499454,-12.903225806451612
2557.1469624691076,-9.677419354838708
2558.147019943675,0.0
2559.1470774182426,12.903225806451612
2560.14713489281,16.129032258064516
2561.1471923673776,19.354838709677416
2562.1472498419453,35.483870967741936
2563.1473073165125,41.935483870967744
2564.1473647910802,35.483870967741936
2565.1474222656475,22.58064516129032
2566.147479740215,16.129032258064516
2567.1475372147825,-3.225806451612903
2568.14759468935,-3.225806451612903
2569.1476521639174,-9.677419354838708
2570.147709638485,-12.903225806451612
2571.1477671130524,-19.354838709677416
2572.14782458762,-25.806451612903224
2573.147882062188,-16.129032258064516
2574.147939536755,-3.225806451612903
2575.147997011323,6.451612903225806
2576.14805448589,16.129032258064516
2577.1481119604578,16.129032258064516
2578.148169435025,16.129032258064516
2579.1482269095927,29.03225806451613
2580.14828438416,48.387096774193544
2581.1483418587277,35.483870967741936
2582.148399333295,16.129032258064516
2583.1484568078627,9.677419354838708
2584.1485142824304,0.0
2585.1485717569976,0.0
2586.1486292315653,-16.129032258064516
2587.1486867061326,-22.58064516129032
2588.1487441807003,-25.806451612903224
2589.1488016552676,-25.806451612903224
2590.1488591298353,-9.677419354838708
2591.1489166044025,0.0
2592.1489740789702,9.677419354838708
2593.1490315535375,16.129032258064516
2594.149089028105,19.354838709677416
2595.149146502673,25.806451612903224
2596.14920397724,41.935483870967744
2597.149261451808,38.70967741935483
2598.149318926375,35.483870967741936
2599.149376400943,19.354838709677416
2600.14943387551,-3.225806451612903
2601.149491350078,-9.677419354838708
2602.149548824645,-12.903225806451612
2603.149606299213,-19.354838709677416
2604.14966377378,-25.806451612903224
2605.1497212483478,-35.483870967741936
2606.1497787229155,-22.58064516129032
2607.1498361974827,-9.677419354838708
2608.1498936720504,3.225806451612903
2609.1499511466177,22.58064516129032
2610.1500086211854,22.58064516129032
2611.1500660957527,22.58064516129032
2612.1501235703204,25.806451612903224
2613.1501810448876,51.61290322580645
2614.1502385194553,38.70967741935483
2615.1502959940226,25.806451612903224
2616.1503534685903,12.903225806451612
2617.150410943158,-3.225806451612903
2618.1504684177253,-9.677419354838708
2619.150525892293,-19.354838709677416
2620.1505833668602,-19.354838709677416
2621.150640841428,-25.806451612903224
2622.150698315995,-32.25806451612903
2623.150755790563,-16.129032258064516
2624.15081326513,3.225806451612903
2625.150870739698,9.677419354838708
2626.150928214265,12.903225806451612
2627.150985688833,12.903225806451612
2628.1510431634,29.03225806451613
2629.151100637968,32.25806451612903
2630.1511581125355,45.16129032258064
2631.151215587103,41.935483870967744
2632.1512730616705,12.903225806451612
2633.1513305362378,9.677419354838708
2634.1513880108055,-9.677419354838708
2635.1514454853727,-9.677419354838708
2636.1515029599404,-9.677419354838708
2637.1515604345077,-19.354838709677416
2638.1516179090754,-25.806451612903224
2639.1516753836427,-22.58064516129032
2640.1517328582104,-6.451612903225806
2641.151790332778,0.0
2642.1518478073453,12.903225806451612
2643.151905281913,19.354838709677416
2644.1519627564803,19.354838709677416
2645.152020231048,25.806451612903224
2646.1520777056153,41.935483870967744
2647.152135180183,38.70967741935483
2648.1521926547503,25.806451612903224
2649.152250129318,19.354838709677416
2650.152307603885,0.0
2651.152365078453,-9.677419354838708
2652.1524225530206,-16.129032258064516
2653.152480027588,-16.129032258064516
2654.1525375021556,-19.354838709677416
2655.152594976723,-29.03225806451613
2656.1526524512906,-9.677419354838708
2657.152709925858,-9.677419354838708
2658.1527674004255,3.225806451612903
2659.152824874993,16.129032258064516
2660.1528823495605,16.129032258064516
2661.1529398241278,16.129032258064516
2662.1529972986955,25.806451612903224
2663.153054773263,38.70967741935483
2664.1531122478304,29.03225806451613
2665.153169722398,22.58064516129032
2666.1532271969654,12.903225806451612
2667.153284671533,0.0
2668.1533421461004,-9.677419354838708
2669.153399620668,-12.903225806451612
2670.1534570952354,-16.129032258064516
2671.153514569803,-19.354838709677416
2672.1535720443703,-19.354838709677416
2673.153629518938,-16.129032258064516
2674.1536869935057,0.0
2675.153744468073,3.225806451612903
2676.1538019426407,16.129032258064516
2677.153859417208,19.354838709677416
2678.1539168917757,25.806451612903224
2679.153974366343,38.70967741935483
2680.1540318409106,41.935483870967744
2681.154089315478,35.483870967741936
2682.1541467900456,22.58064516129032
2683.154204264613,12.903225806451612
2684.1542617391806,3.225806451612903
2685.154319213748,-6.451612903225806
2686.1543766883156,-16.129032258064516
2687.1544341628833,-16.129032258064516
2688.1544916374505,-29.03225806451613
2689.1545491120182,-25.806451612903224
2690.1546065865855,-12.903225806451612
2691.154664061153,3.225806451612903
2692.1547215357205,12.903225806451612
2693.154779010288,12.903225806451612
2694.1548364848554,19.354838709677416
2695.154893959423,32.25806451612903
2696.1549514339904,32.25806451612903
2697.155008908558,35.483870967741936
2698.155066383126,35.483870967741936
2699.155123857693,16.129032258064516
2700.155181332261,3.225806451612903
2701.155238806828,-6.451612903225806
2702.1552962813957,-12.903225806451612
2703.155353755963,-12.903225806451612
2704.1554112305307,-19.354838709677416
2705.155468705098,-25.806451612903224
2706.1555261796657,-16.129032258064516
2707.155583654233,-12.903225806451612
2708.1556411288007,-3.225806451612903
2709.1556986033684,16.129032258064516
2710.1557560779356,22.58064516129032
2711.1558135525033,25.806451612903224
2712.1558710270706,29.03225806451613
2713.1559285016383,38.70967741935483
2714.1559859762056,38.70967741935483
2715.1560434507733,19.354838709677416
2716.1561009253405,16.129032258064516
2717.1561583999082,3.225806451612903
2718.1562158744755,-3.225806451612903
2719.156273349043,-16.129032258064516
2720.156330823611,-16.129032258064516
2721.156388298178,-25.806451612903224
2722.156445772746,-25.806451612903224
2723.156503247313,-16.129032258064516
2724.156560721881,-9.677419354838708
2725.156618196448,3.225806451612903
2726.156675671016,16.129032258064516
2727.156733145583,25.806451612903224
2728.156790620151,25.806451612903224
2729.156848094718,35.483870967741936
2730.1569055692858,38.70967741935483
2731.1569630438535,45.16129032258064
2732.1570205184207,19.354838709677416
2733.1570779929884,9.677419354838708
2734.1571354675557,-9.677419354838708
2735.1571929421234,-12.903225806451612
2736.1572504166907,-9.677419354838708
2737.1573078912584,-22.58064516129032
2738.1573653658256,-25.806451612903224
2739.1574228403933,-22.58064516129032
2740.1574803149606,-6.451612903225806
2741.1575377895283,-3.225806451612903
2742.1575952640956,9.677419354838708
2743.1576527386633,12.903225806451612
2744.157710213231,19.354838709677416
2745.1577676877982,25.806451612903224
2746.157825162366,41.935483870967744
2747.157882636933,38.70967741935483
2748.157940111501,32.25806451612903
2749.157997586068,16.129032258064516
2750.158055060636,0.0
2751.158112535203,-3.225806451612903
2752.158170009771,-12.903225806451612
2753.158227484338,-25.806451612903224
2754.158284958906,-25.806451612903224
2755.1583424334735,-32.25806451612903
2756.158399908041,-22.58064516129032
2757.1584573826085,-6.451612903225806
2758.1585148571758,3.225806451612903
2759.1585723317435,16.129032258064516
2760.1586298063107,12.903225806451612
2761.1586872808784,22.58064516129032
2762.1587447554457,35.483870967741936
2763.1588022300134,41.935483870967744
2764.1588597045807,38.70967741935483
2765.1589171791484,25.806451612903224
2766.158974653716,12.903225806451612
2767.1590321282833,-3.225806451612903
2768.159089602851,-12.903225806451612
2769.1591470774183,-12.903225806451612
2770.159204551986,-16.129032258064516
2771.1592620265533,-19.354838709677416
2772.159319501121,-25.806451612903224
2773.1593769756882,-16.129032258064516
2774.159434450256,-6.451612903225806
2775.159491924823,0.0
2776.159549399391,16.129032258064516
2777.1596068739586,22.58064516129032
2778.159664348526,22.58064516129032
2779.1597218230936,35.483870967741936
2780.159779297661,41.935483870967744
2781.1598367722286,35.483870967741936
2782.159894246796,22.58064516129032
2783.1599517213635,16.129032258064516
2784.160009195931,-3.225806451612903
2785.1600666704985,-9.677419354838708
2786.1601241450658,-9.677419354838708
2787.1601816196335,-19.354838709677416
2788.160239094201,-25.806451612903224
2789.1602965687684,-22.58064516129032
2790.160354043336,-12.903225806451612
2791.1604115179034,3.225806451612903
2792.160468992471,9.677419354838708
2793.1605264670384,9.677419354838708
2794.160583941606,16.129032258064516
2795.1606414161733,25.806451612903224
2796.160698890741,38.70967741935483
2797.1607563653083,35.483870967741936
2798.160813839876,29.03225806451613
2799.1608713144437,16.129032258064516
2800.160928789011,0.0
2801.1609862635787,0.0
2802.161043738146,-9.677419354838708
2803.1611012127137,-9.677419354838708
2804.161158687281,-19.354838709677416
2805.1612161618486,-32.25806451612903
2806.161273636416,-22.58064516129032
2807.1613311109836,-12.903225806451612
2808.161388585551,16.129032258064516
2809.1614460601186,16.129032258064516
2810.161503534686,19.354838709677416
2811.1615610092535,19.354838709677416
2812.1616184838213,29.03225806451613
2813.1616759583885,41.935483870967744
2814.161733432956,35.483870967741936
2815.1617909075235,25.806451612903224
2816.161848382091,16.129032258064516
2817.1619058566584,3.225806451612903
2818.161963331226,-12.903225806451612
2819.1620208057934,-16.129032258064516
2820.162078280361,-9.677419354838708
2821.1621357549284,-25.806451612903224
2822.162193229496,-32.25806451612903
2823.162250704064,-16.129032258064516
2824.162308178631,0.0
2825.162365653199,9.677419354838708
2826.162423127766,6.451612903225806
2827.1624806023337,16.129032258064516
2828.162538076901,25.806451612903224
2829.1625955514687,32.25806451612903
2830.162653026036,35.483870967741936
2831.1627105006037,35.483870967741936
2832.162767975171,22.58064516129032
2833.1628254497386,12.903225806451612
2834.1628829243064,0.0
2835.1629403988736,-9.677419354838708
2836.1629978734413,-6.451612903225806
2837.1630553480086,-22.58064516129032
2838.1631128225763,-25.806451612903224
2839.1631702971436,-22.58064516129032
2840.1632277717113,-6.451612903225806
2841.1632852462785,3.225806451612903
2842.1633427208462,16.129032258064516
2843.1634001954135,16.129032258064516
2844.163457669981,16.129032258064516
2845.163515144549,25.806451612903224
2846.163572619116,45.16129032258064
2847.163630093684,32.25806451612903
2848.163687568251,32.25806451612903
2849.163745042819,12.903225806451612
2850.163802517386,0.0
2851.163859991954,-6.451612903225806
2852.163917466521,-9.677419354838708
2853.163974941089,-9.677419354838708
2854.164032415656,-22.58064516129032
2855.1640898902237,-25.806451612903224
2856.1641473647915,-16.129032258064516
2857.1642048393587,-6.451612903225806
2858.1642623139264,0.0
2859.1643197884937,12.903225806451612
2860.1643772630614,19.354838709677416
2861.1644347376287,25.806451612903224
2862.1644922121964,25.806451612903224
2863.1645496867636,38.70967741935483
2864.1646071613313,35.483870967741936
2865.1646646358986,25.806451612903224
2866.1647221104663,12.903225806451612
2867.1647795850336,6.451612903225806
2868.1648370596013,-9.677419354838708
2869.164894534169,-16.129032258064516
2870.1649520087362,-16.129032258064516
2871.165009483304,-19.354838709677416
2872.165066957871,-19.354838709677416
2873.165124432439,-16.129032258064516
2874.165181907006,-6.451612903225806
2875.165239381574,6.451612903225806
2876.165296856141,16.129032258064516
2877.165354330709,12.903225806451612
2878.165411805276,25.806451612903224
2879.165469279844,35.483870967741936
2880.1655267544115,45.16129032258064
2881.165584228979,41.935483870967744
2882.1656417035465,19.354838709677416
2883.1656991781138,6.451612903225806
2884.1657566526815,-6.451612903225806
2885.1658141272487,-16.129032258064516
2886.1658716018164,-16.129032258064516
2887.1659290763837,-22.58064516129032
2888.1659865509514,-25.806451612903224
2889.1660440255187,-22.58064516129032
2890.1661015000864,-3.225806451612903
2891.166158974654,6.451612903225806
2892.1662164492213,9.677419354838708
2893.166273923789,16.129032258064516
2894.1663313983563,16.129032258064516
2895.166388872924,25.806451612903224
2896.1664463474913,41.935483870967744
2897.166503822059,38.70967741935483
2898.1665612966262,29.03225806451613
2899.166618771194,16.129032258064516
2900.166676245761,9.677419354838708
2901.166733720329,-3.225806451612903
2902.1667911948966,-12.903225806451612
2903.166848669464,-12.903225806451612
2904.1669061440316,-19.354838709677416
2905.166963618599,-22.58064516129032
2906.1670210931666,-16.129032258064516
2907.167078567734,-9.677419354838708
2908.1671360423015,0.0
2909.167193516869,16.129032258064516
2910.1672509914365,22.58064516129032
2911.1673084660038,22.58064516129032
2912.1673659405715,29.03225806451613
2913.167423415139,45.16129032258064
2914.1674808897064,35.483870967741936
2915.167538364274,29.03225806451613
2916.1675958388414,9.677419354838708
2917.167653313409,-9.677419354838708
2918.1677107879764,-9.677419354838708
2919.167768262544,-16.129032258064516
2920.1678257371113,-16.129032258064516
2921.167883211679,-22.58064516129032
2922.1679406862463,-25.806451612903224
2923.167998160814,-16.129032258064516
2924.1680556353813,-9.677419354838708
2925.168113109949,3.225806451612903
2926.1681705845167,16.129032258064516
2927.168228059084,19.354838709677416
2928.1682855336517,25.806451612903224
2929.168343008219,35.483870967741936
2930.1684004827866,48.387096774193544
2931.168457957354,35.483870967741936
2932.1685154319216,16.129032258064516
2933.168572906489,6.451612903225806
2934.1686303810566,0.0
2935.168687855624,-12.903225806451612
2936.1687453301915,-9.677419354838708
2937.1688028047593,-25.806451612903224
2938.1688602793265,-25.806451612903224
2939.168917753894,-19.354838709677416
2940.1689752284615,-12.903225806451612
2941.169032703029,-3.225806451612903
2942.1690901775964,9.677419354838708
2943.169147652164,16.129032258064516
2944.1692051267314,16.129032258064516
2945.169262601299,25.806451612903224
2946.1693200758664,38.70967741935483
2947.169377550434,41.935483870967744
2948.169435025002,29.03225806451613
2949.169492499569,16.129032258064516
2950.1695499741368,3.225806451612903
2951.169607448704,-3.225806451612903
2952.1696649232717,-12.903225806451612
2953.169722397839,-6.451612903225806
2954.1697798724067,-19.354838709677416
2955.169837346974,-32.25806451612903
2956.1698948215417,-12.903225806451612
2957.169952296109,0.0
2958.1700097706766,6.451612903225806
2959.1700672452444,9.677419354838708
2960.1701247198116,16.129032258064516
2961.1701821943793,29.03225806451613
2962.1702396689466,25.806451612903224
2963.1702971435143,41.935483870967744
2964.1703546180815,32.25806451612903
2965.1704120926493,25.806451612903224
2966.1704695672165,12.903225806451612
2967.170527041784,-6.451612903225806
2968.1705845163515,-6.451612903225806
2969.170641990919,-6.451612903225806
2970.170699465487,-16.129032258064516
2971.170756940054,-19.354838709677416
2972.170814414622,-22.58064516129032
2973.170871889189,-6.451612903225806
2974.170929363757,0.0
2975.170986838324,6.451612903225806
2976.171044312892,12.903225806451612
2977.171101787459,9.677419354838708
2978.171159262027,19.354838709677416
2979.171216736594,35.483870967741936
2980.1712742111617,38.70967741935483
2981.1713316857295,35.483870967741936
2982.1713891602967,22.58064516129032
2983.1714466348644,12.903225806451612
2984.1715041094317,-6.451612903225806
2985.1715615839994,-16.129032258064516
2986.1716190585666,-9.677419354838708
2987.1716765331344,-22.58064516129032
2988.1717340077016,-19.354838709677416
2989.1717914822693,-16.129032258064516
2990.1718489568366,-9.677419354838708
2991.1719064314043,3.225806451612903
2992.1719639059716,6.451612903225806
2993.1720213805393,16.129032258064516
2994.172078855107,16.129032258064516
2995.1721363296742,25.806451612903224
2996.172193804242,45.16129032258064
2997.172251278809,38.70967741935483
2998.172308753377,29.03225806451613
2999.172366227944,16.129032258064516
3000.172423702512,0.0
3001.172481177079,-6.451612903225806
3002.172538651647,-12.903225806451612
3003.172596126214,-12.903225806451612
3004.172653600782,-25.806451612903224
3005.1727110753495,-29.03225806451613
3006.172768549917,-16.129032258064516
3007.1728260244845,-6.451612903225806
3008.1728834990517,3.225806451612903
3009.1729409736195,9.677419354838708
3010.1729984481867,19.354838709677416
3011.1730559227544,22.58064516129032
3012.1731133973217,35.483870967741936
3013.1731708718894,41.935483870967744
3014.1732283464567,45.16129032258064
3015.1732858210244,19.354838709677416
3016.173343295592,12.903225806451612
3017.1734007701593,-9.677419354838708
3018.173458244727,-16.129032258064516
3019.1735157192943,-9.677419354838708
3020.173573193862,-19.354838709677416
3021.1736306684293,-19.354838709677416
3022.173688142997,-29.03225806451613
3023.1737456175642,-25.806451612903224
3024.173803092132,-6.451612903225806
3025.173860566699,6.451612903225806
3026.173918041267,19.354838709677416
3027.1739755158346,16.129032258064516
3028.174032990402,32.25806451612903
3029.1740904649696,45.16129032258064
3030.174147939537,45.16129032258064
3031.1742054141046,41.935483870967744
3032.174262888672,22.58064516129032
3033.1743203632395,3.225806451612903
3034.174377837807,-6.451612903225806
3035.1744353123745,-9.677419354838708
3036.1744927869418,-19.354838709677416
3037.1745502615095,-29.03225806451613
3038.174607736077,-35.483870967741936
3039.1746652106444,-29.03225806451613
3040.174722685212,-12.903225806451612
3041.1747801597794,6.451612903225806
3042.174837634347,9.677419354838708
3043.1748951089144,19.354838709677416
3044.174952583482,25.806451612903224
3045.1750100580493,41.935483870967744
3046.175067532617,48.387096774193544
3047.1751250071843,41.935483870967744
3048.175182481752,25.806451612903224
3049.1752399563193,16.129032258064516
3050.175297430887,3.225806451612903
3051.1753549054547,-3.225806451612903
3052.175412380022,-19.354838709677416
3053.1754698545897,-19.354838709677416
3054.175527329157,-25.806451612903224
3055.1755848037246,-32.25806451612903
3056.175642278292,-25.806451612903224
3057.1756997528596,-9.677419354838708
3058.175757227427,9.677419354838708
3059.1758147019946,25.806451612903224
3060.175872176562,19.354838709677416
3061.1759296511295,32.25806451612903
3062.1759871256972,41.935483870967744
3063.1760446002645,45.16129032258064
3064.176102074832,38.70967741935483
3065.1761595493995,25.806451612903224
3066.176217023967,12.903225806451612
3067.1762744985344,-3.225806451612903
3068.176331973102,-16.129032258064516
3069.1763894476694,-16.129032258064516
3070.176446922237,-25.806451612903224
3071.1765043968044,-35.483870967741936
3072.176561871372,-29.03225806451613
3073.17661934594,-19.354838709677416
3074.176676820507,-6.451612903225806
3075.1767342950748,12.903225806451612
3076.176791769642,19.354838709677416
3077.1768492442097,25.806451612903224
3078.176906718777,35.483870967741936
3079.1769641933447,41.935483870967744
3080.177021667912,45.16129032258064
3081.1770791424797,35.483870967741936
3082.177136617047,22.58064516129032
3083.1771940916146,6.451612903225806
3084.1772515661823,-6.451612903225806
3085.1773090407496,-9.677419354838708
3086.1773665153173,-12.903225806451612
3087.1774239898846,-25.806451612903224
3088.1774814644523,-32.25806451612903
3089.1775389390195,-25.806451612903224
3090.1775964135873,-12.903225806451612
3091.1776538881545,6.451612903225806
3092.177711362722,16.129032258064516
3093.1777688372895,16.129032258064516
3094.177826311857,22.58064516129032
3095.177883786425,35.483870967741936
3096.177941260992,48.387096774193544
3097.17799873556,35.483870967741936
3098.178056210127,25.806451612903224
3099.178113684695,16.129032258064516
3100.178171159262,9.677419354838708
3101.17822863383,3.225806451612903
3102.178286108397,-19.354838709677416
3103.1783435829648,-19.354838709677416
3104.178401057532,-38.70967741935483
3105.1784585320997,-35.483870967741936
3106.178516006667,-22.58064516129032
3107.1785734812347,-9.677419354838708
3108.1786309558024,3.225806451612903
3109.1786884303697,25.806451612903224
3110.1787459049374,19.354838709677416
3111.1788033795046,22.58064516129032
3112.1788608540724,38.70967741935483
3113.1789183286396,48.387096774193544
3114.1789758032073,38.70967741935483
3115.1790332777746,22.58064516129032
3116.1790907523423,9.677419354838708
3117.1791482269095,-9.677419354838708
3118.1792057014773,-12.903225806451612
3119.179263176045,-16.129032258064516
3120.179320650612,-29.03225806451613
3121.17937812518,-25.806451612903224
3122.179435599747,-25.806451612903224
3123.179493074315,-9.677419354838708
3124.179550548882,-3.225806451612903
3125.17960802345,19.354838709677416
3126.179665498017,16.129032258064516
3127.179722972585,16.129032258064516
3128.179780447152,32.25806451612903
3129.17983792172,41.935483870967744
3130.1798953962875,51.61290322580645
3131.179952870855,35.483870967741936
3132.1800103454225,19.354838709677416
3133.1800678199897,6.451612903225806
3134.1801252945575,-6.451612903225806
3135.1801827691247,-12.903225806451612
3136.1802402436924,-12.903225806451612
3137.1802977182597,-29.03225806451613
3138.1803551928274,-32.25806451612903
3139.1804126673946,-25.806451612903224
3140.1804701419624,-12.903225806451612
3141.18052761653,3.225806451612903
3142.1805850910973,16.129032258064516
3143.180642565665,19.354838709677416
3144.1807000402323,22.58064516129032
3145.1807575148,45.16129032258064
3146.1808149893673,48.387096774193544
3147.180872463935,32.25806451612903
3148.1809299385022,29.03225806451613
3149.18098741307,12.903225806451612
3150.181044887637,-6.451612903225806
3151.181102362205,-6.451612903225806
3152.1811598367726,-16.129032258064516
3153.18121731134,-19.354838709677416
3154.1812747859076,-35.483870967741936
3155.181332260475,-29.03225806451613
3156.1813897350426,-9.677419354838708
3157.18144720961,-3.225806451612903
3158.1815046841775,6.451612903225806
3159.181562158745,9.677419354838708
3160.1816196333125,16.129032258064516
3161.1816771078798,29.03225806451613
3162.1817345824475,38.70967741935483
3163.1817920570147,38.70967741935483
3164.1818495315824,38.70967741935483
