Vector1,Vector2
0.0,507.0
0.001,504.0
0.002,504.0
0.003,505.0
0.004,505.0
0.005,503.0
0.006,509.0
0.007,508.0
0.008,509.0
0.009000000000000001,513.0
0.01,515.0
0.011,513.0
0.012,512.0
0.013000000000000001,513.0
0.014,511.0
0.015,510.0
0.016,510.0
0.017,507.0
0.018000000000000002,505.0
0.019,503.0
0.02,503.0
0.021,504.0
0.022,504.0
0.023,506.0
0.024,508.0
0.025,509.0
0.026000000000000002,515.0
0.027,517.0
0.028,514.0
0.029,512.0
0.03,510.0
0.031,509.0
0.032,507.0
0.033,509.0
0.034,503.0
0.035,506.0
0.036000000000000004,505.0
0.037,505.0
0.038,508.0
0.039,511.0
0.04,508.0
0.041,510.0
0.042,511.0
0.043000000000000003,514.0
0.044,515.0
0.045,513.0
0.046,513.0
0.047,511.0
0.048,510.0
0.049,511.0
0.05,508.0
0.051000000000000004,507.0
0.052000000000000005,503.0
0.053,504.0
0.054,506.0
0.055,505.0
0.056,508.0
0.057,507.0
0.058,511.0
0.059000000000000004,510.0
0.06,513.0
0.061,513.0
0.062,513.0
0.063,512.0
0.064,511.0
0.065,511.0
0.066,511.0
0.067,507.0
0.068,503.0
0.069,504.0
0.07,504.0
0.07100000000000001,507.0
0.07200000000000001,506.0
0.073,509.0
0.074,509.0
0.075,510.0
0.076,512.0
0.077,515.0
0.078,515.0
0.079,513.0
0.08,512.0
0.081,509.0
0.082,508.0
0.083,510.0
0.084,507.0
0.085,504.0
0.08600000000000001,505.0
0.08700000000000001,506.0
0.088,505.0
0.089,507.0
0.09,508.0
0.091,511.0
0.092,511.0
0.093,511.0
0.094,513.0
0.095,513.0
0.096,512.0
0.097,512.0
0.098,511.0
0.099,509.0
0.1,507.0
0.101,504.0
0.10200000000000001,504.0
0.10300000000000001,505.0
0.10400000000000001,505.0
0.105,506.0
0.106,508.0
0.107,506.0
0.108,509.0
0.109,513.0
0.11,513.0
0.111,511.0
0.112,511.0
0.113,511.0
0.114,511.0
0.115,511.0
0.116,511.0
0.117,508.0
0.11800000000000001,505.0
0.11900000000000001,507.0
0.12,505.0
0.121,504.0
0.122,507.0
0.123,508.0
0.124,507.0
0.125,510.0
0.126,512.0
0.127,511.0
0.128,511.0
0.129,514.0
0.13,512.0
0.131,511.0
0.132,512.0
0.133,508.0
0.134,508.0
0.135,505.0
0.136,505.0
0.137,507.0
0.138,504.0
0.139,510.0
0.14,508.0
0.14100000000000001,508.0
0.14200000000000002,513.0
0.14300000000000002,515.0
0.14400000000000002,513.0
0.145,510.0
0.146,509.0
0.147,509.0
0.148,509.0
0.149,509.0
0.15,509.0
0.151,508.0
0.152,503.0
0.153,501.0
0.154,506.0
0.155,505.0
0.156,503.0
0.157,507.0
0.158,508.0
0.159,510.0
0.16,511.0
0.161,514.0
0.162,513.0
0.163,513.0
0.164,509.0
0.165,510.0
0.166,508.0
0.167,507.0
0.168,504.0
0.169,505.0
0.17,506.0
0.171,508.0
0.17200000000000001,508.0
0.17300000000000001,506.0
0.17400000000000002,509.0
0.17500000000000002,512.0
0.176,513.0
0.177,514.0
0.178,513.0
0.179,513.0
0.18,511.0
0.181,510.0
0.182,508.0
0.183,507.0
0.184,507.0
0.185,506.0
0.186,504.0
0.187,508.0
0.188,507.0
0.189,507.0
0.19,509.0
0.191,510.0
0.192,513.0
0.193,512.0
0.194,512.0
0.195,513.0
0.196,513.0
0.197,511.0
0.198,509.0
0.199,509.0
0.2,505.0
0.201,505.0
0.202,505.0
0.203,504.0
0.20400000000000001,504.0
0.20500000000000002,506.0
0.20600000000000002,506.0
0.20700000000000002,507.0
0.20800000000000002,511.0
0.209,512.0
0.21,513.0
0.211,512.0
0.212,511.0
0.213,511.0
0.214,512.0
0.215,511.0
0.216,508.0
0.217,507.0
0.218,503.0
0.219,506.0
0.22,503.0
0.221,505.0
0.222,507.0
0.223,507.0
0.224,510.0
0.225,510.0
0.226,511.0
0.227,512.0
0.228,514.0
0.229,513.0
0.23,511.0
0.231,509.0
0.232,508.0
0.233,507.0
0.234,506.0
0.23500000000000001,506.0
0.23600000000000002,507.0
0.23700000000000002,507.0
0.23800000000000002,508.0
0.23900000000000002,510.0
0.24,508.0
0.241,507.0
0.242,510.0
0.243,512.0
0.244,510.0
0.245,511.0
0.246,510.0
0.247,509.0
0.248,509.0
0.249,510.0
0.25,508.0
0.251,507.0
0.252,505.0
0.253,503.0
0.254,508.0
0.255,507.0
0.256,508.0
0.257,508.0
0.258,511.0
0.259,511.0
0.26,511.0
0.261,512.0
0.262,513.0
0.263,513.0
0.264,512.0
0.265,511.0
0.266,510.0
0.267,508.0
0.268,504.0
0.269,504.0
0.27,505.0
0.271,507.0
0.272,505.0
0.273,509.0
0.274,509.0
0.275,510.0
0.276,512.0
0.277,512.0
0.278,515.0
0.279,514.0
0.28,513.0
0.281,512.0
0.28200000000000003,509.0
0.28300000000000003,510.0
0.28400000000000003,507.0
0.28500000000000003,503.0
0.28600000000000003,504.0
0.28700000000000003,505.0
0.28800000000000003,504.0
0.289,506.0
0.29,507.0
0.291,509.0
0.292,512.0
0.293,511.0
0.294,512.0
0.295,512.0
0.296,510.0
0.297,511.0
0.298,511.0
0.299,508.0
0.3,509.0
0.301,506.0
0.302,504.0
0.303,505.0
0.304,506.0
0.305,504.0
0.306,508.0
0.307,506.0
0.308,510.0
0.309,512.0
0.31,512.0
0.311,514.0
0.312,514.0
0.313,514.0
0.314,513.0
0.315,510.0
0.316,510.0
0.317,510.0
0.318,506.0
0.319,505.0
0.32,507.0
0.321,505.0
0.322,507.0
0.323,508.0
0.324,507.0
0.325,511.0
0.326,513.0
0.327,513.0
0.328,513.0
0.329,512.0
0.33,510.0
0.331,509.0
0.332,510.0
0.333,509.0
0.334,508.0
0.335,505.0
0.336,503.0
0.337,507.0
0.338,507.0
0.339,508.0
0.34,508.0
0.341,508.0
0.342,511.0
0.343,512.0
0.34400000000000003,513.0
0.34500000000000003,513.0
0.34600000000000003,513.0
0.34700000000000003,512.0
0.34800000000000003,510.0
0.34900000000000003,509.0
0.35000000000000003,510.0
0.35100000000000003,507.0
0.352,502.0
0.353,504.0
0.354,505.0
0.355,507.0
0.356,507.0
0.357,508.0
0.358,507.0
0.359,510.0
0.36,512.0
0.361,514.0
0.362,512.0
0.363,511.0
0.364,512.0
0.365,511.0
0.366,509.0
0.367,507.0
0.368,507.0
0.369,504.0
0.37,507.0
0.371,505.0
0.372,506.0
0.373,508.0
0.374,507.0
0.375,509.0
0.376,513.0
0.377,513.0
0.378,513.0
0.379,512.0
0.38,512.0
0.381,511.0
0.382,507.0
0.383,506.0
0.384,505.0
0.385,502.0
0.386,503.0
0.387,507.0
0.388,506.0
0.389,508.0
0.39,510.0
0.391,509.0
0.392,513.0
0.393,513.0
0.394,513.0
0.395,512.0
0.396,513.0
0.397,512.0
0.398,512.0
0.399,508.0
0.4,505.0
0.401,505.0
0.402,504.0
0.403,505.0
0.404,505.0
0.405,506.0
0.406,507.0
0.40700000000000003,507.0
0.40800000000000003,508.0
0.40900000000000003,512.0
0.41000000000000003,513.0
0.41100000000000003,512.0
0.41200000000000003,514.0
0.41300000000000003,512.0
0.41400000000000003,511.0
0.41500000000000004,508.0
0.41600000000000004,509.0
0.417,507.0
0.418,507.0
0.419,505.0
0.42,507.0
0.421,506.0
0.422,507.0
0.423,507.0
0.424,508.0
0.425,510.0
0.426,512.0
0.427,512.0
0.428,511.0
0.429,513.0
0.43,511.0
0.431,512.0
0.432,512.0
0.433,508.0
0.434,507.0
0.435,504.0
0.436,505.0
0.437,504.0
0.438,506.0
0.439,506.0
0.44,510.0
0.441,513.0
0.442,513.0
0.443,515.0
0.444,515.0
0.445,512.0
0.446,514.0
0.447,511.0
0.448,510.0
0.449,510.0
0.45,507.0
0.451,504.0
0.452,502.0
0.453,503.0
0.454,505.0
0.455,504.0
0.456,506.0
0.457,508.0
0.458,508.0
0.459,513.0
0.46,514.0
0.461,513.0
0.462,511.0
0.463,510.0
0.464,512.0
0.465,510.0
0.466,511.0
0.467,508.0
0.468,506.0
0.46900000000000003,505.0
0.47000000000000003,506.0
0.47100000000000003,507.0
0.47200000000000003,505.0
0.47300000000000003,506.0
0.47400000000000003,510.0
0.47500000000000003,511.0
0.47600000000000003,512.0
0.47700000000000004,512.0
0.47800000000000004,510.0
0.47900000000000004,513.0
0.48,511.0
0.481,512.0
0.482,511.0
0.483,507.0
0.484,506.0
0.485,503.0
0.486,504.0
0.487,505.0
0.488,507.0
0.489,508.0
0.49,507.0
0.491,509.0
0.492,512.0
0.493,514.0
0.494,512.0
0.495,513.0
0.496,512.0
0.497,511.0
0.498,510.0
0.499,509.0
0.5,506.0
0.501,505.0
0.502,506.0
0.503,503.0
0.504,506.0
0.505,508.0
0.506,507.0
0.507,507.0
0.508,511.0
0.509,512.0
0.51,513.0
0.511,513.0
0.512,512.0
0.513,509.0
0.514,510.0
0.515,508.0
0.516,508.0
0.517,506.0
0.518,505.0
0.519,504.0
0.52,507.0
0.521,507.0
0.522,507.0
0.523,508.0
0.524,510.0
0.525,510.0
0.526,514.0
0.527,513.0
0.528,513.0
0.529,512.0
0.53,513.0
0.531,512.0
0.532,511.0
0.533,508.0
0.534,505.0
0.535,506.0
0.536,505.0
0.537,507.0
0.538,507.0
0.539,508.0
0.54,507.0
0.541,511.0
0.542,513.0
0.543,512.0
0.544,512.0
0.545,513.0
0.546,512.0
0.547,514.0
0.548,509.0
0.549,510.0
0.55,509.0
0.551,506.0
0.552,504.0
0.553,503.0
0.554,505.0
0.555,505.0
0.556,507.0
0.557,508.0
0.558,511.0
0.559,515.0
0.56,512.0
0.561,512.0
0.562,511.0
0.5630000000000001,511.0
0.5640000000000001,511.0
0.5650000000000001,508.0
0.5660000000000001,508.0
0.5670000000000001,506.0
0.5680000000000001,505.0
0.5690000000000001,504.0
0.5700000000000001,506.0
0.5710000000000001,506.0
0.5720000000000001,506.0
0.5730000000000001,506.0
0.5740000000000001,510.0
0.5750000000000001,509.0
0.5760000000000001,513.0
0.577,513.0
0.578,514.0
0.579,513.0
0.58,512.0
0.581,512.0
0.582,509.0
0.583,509.0
0.584,504.0
0.585,503.0
0.586,505.0
0.587,505.0
0.588,505.0
0.589,508.0
0.59,508.0
0.591,511.0
0.592,514.0
0.593,512.0
0.594,512.0
0.595,511.0
0.596,513.0
0.597,511.0
0.598,508.0
0.599,510.0
0.6,504.0
0.601,505.0
0.602,505.0
0.603,506.0
0.604,505.0
0.605,508.0
0.606,507.0
0.607,508.0
0.608,510.0
0.609,513.0
0.61,512.0
0.611,514.0
0.612,512.0
0.613,512.0
0.614,513.0
0.615,509.0
0.616,510.0
0.617,507.0
0.618,506.0
0.619,505.0
0.62,507.0
0.621,508.0
0.622,508.0
0.623,507.0
0.624,507.0
0.625,510.0
0.626,513.0
0.627,513.0
0.628,512.0
0.629,513.0
0.63,511.0
0.631,511.0
0.632,509.0
0.633,508.0
0.634,505.0
0.635,506.0
0.636,504.0
0.637,506.0
0.638,508.0
0.639,508.0
0.64,506.0
0.641,510.0
0.642,510.0
0.643,512.0
0.644,512.0
0.645,511.0
0.646,510.0
0.647,510.0
0.648,511.0
0.649,511.0
0.65,507.0
0.651,503.0
0.652,506.0
0.653,505.0
0.654,505.0
0.655,508.0
0.656,509.0
0.657,508.0
0.658,511.0
0.659,513.0
0.66,512.0
0.661,512.0
0.662,512.0
0.663,511.0
0.664,510.0
0.665,510.0
0.666,508.0
0.667,505.0
0.668,505.0
0.669,504.0
0.67,504.0
0.671,504.0
0.672,509.0
0.673,508.0
0.674,509.0
0.675,512.0
0.676,513.0
0.677,512.0
0.678,512.0
0.679,512.0
0.68,510.0
0.681,512.0
0.682,511.0
0.683,507.0
0.684,506.0
0.685,504.0
0.686,504.0
0.687,507.0
0.6880000000000001,509.0
0.6890000000000001,509.0
0.6900000000000001,508.0
0.6910000000000001,511.0
0.6920000000000001,511.0
0.6930000000000001,512.0
0.6940000000000001,512.0
0.6950000000000001,512.0
0.6960000000000001,512.0
0.6970000000000001,511.0
0.6980000000000001,511.0
0.6990000000000001,511.0
0.7000000000000001,509.0
0.7010000000000001,506.0
0.7020000000000001,505.0
0.7030000000000001,504.0
0.704,507.0
0.705,507.0
0.706,506.0
0.707,507.0
0.708,511.0
0.709,512.0
0.71,512.0
0.711,512.0
0.712,509.0
0.713,511.0
0.714,511.0
0.715,511.0
0.716,508.0
0.717,507.0
0.718,504.0
0.719,506.0
0.72,508.0
0.721,507.0
0.722,507.0
0.723,506.0
0.724,508.0
0.725,511.0
0.726,511.0
0.727,514.0
0.728,513.0
0.729,511.0
0.73,512.0
0.731,508.0
0.732,509.0
0.733,506.0
0.734,504.0
0.735,504.0
0.736,505.0
0.737,505.0
0.738,508.0
0.739,507.0
0.74,508.0
0.741,511.0
0.742,512.0
0.743,513.0
0.744,512.0
0.745,513.0
0.746,511.0
0.747,511.0
0.748,509.0
0.749,507.0
0.75,505.0
0.751,504.0
0.752,506.0
0.753,506.0
0.754,509.0
0.755,506.0
0.756,508.0
0.757,509.0
0.758,511.0
0.759,513.0
0.76,513.0
0.761,512.0
0.762,511.0
0.763,512.0
0.764,510.0
0.765,509.0
0.766,508.0
0.767,504.0
0.768,504.0
0.769,506.0
0.77,507.0
0.771,506.0
0.772,507.0
0.773,508.0
0.774,510.0
0.775,512.0
0.776,512.0
0.777,512.0
0.778,513.0
0.779,512.0
0.78,510.0
0.781,511.0
0.782,508.0
0.783,505.0
0.784,506.0
0.785,505.0
0.786,509.0
0.787,507.0
0.788,505.0
0.789,507.0
0.79,506.0
0.791,510.0
0.792,512.0
0.793,513.0
0.794,513.0
0.795,512.0
0.796,511.0
0.797,511.0
0.798,510.0
0.799,508.0
0.8,506.0
0.801,504.0
0.802,504.0
0.803,505.0
0.804,505.0
0.805,506.0
0.806,505.0
0.807,509.0
0.808,511.0
0.809,512.0
0.81,514.0
0.811,511.0
0.812,511.0
0.8130000000000001,511.0
0.8140000000000001,510.0
0.8150000000000001,510.0
0.8160000000000001,509.0
0.8170000000000001,504.0
0.8180000000000001,506.0
0.8190000000000001,504.0
0.8200000000000001,506.0
0.8210000000000001,505.0
0.8220000000000001,505.0
0.8230000000000001,505.0
0.8240000000000001,510.0
0.8250000000000001,512.0
0.8260000000000001,515.0
0.8270000000000001,514.0
0.8280000000000001,513.0
0.8290000000000001,512.0
0.8300000000000001,511.0
0.8310000000000001,511.0
0.8320000000000001,510.0
0.833,508.0
0.834,507.0
0.835,505.0
0.836,506.0
0.837,505.0
0.838,505.0
0.839,508.0
0.84,507.0
0.841,509.0
0.842,514.0
0.843,514.0
0.844,513.0
0.845,511.0
0.846,513.0
0.847,510.0
0.848,511.0
0.849,509.0
0.85,506.0
0.851,504.0
0.852,503.0
0.853,505.0
0.854,506.0
0.855,507.0
0.856,506.0
0.857,508.0
0.858,511.0
0.859,513.0
0.86,513.0
0.861,515.0
0.862,511.0
0.863,512.0
0.864,510.0
0.865,510.0
0.866,508.0
0.867,506.0
0.868,505.0
0.869,505.0
0.87,504.0
0.871,507.0
0.872,508.0
0.873,508.0
0.874,509.0
0.875,511.0
0.876,514.0
0.877,514.0
0.878,513.0
0.879,514.0
0.88,511.0
0.881,507.0
0.882,512.0
0.883,510.0
0.884,505.0
0.885,505.0
0.886,506.0
0.887,506.0
0.888,507.0
0.889,508.0
0.89,510.0
0.891,510.0
0.892,511.0
0.893,512.0
0.894,512.0
0.895,512.0
0.896,512.0
0.897,510.0
0.898,510.0
0.899,509.0
0.9,505.0
0.901,505.0
0.902,505.0
0.903,504.0
0.904,507.0
0.905,505.0
0.906,509.0
0.907,509.0
0.908,510.0
0.909,512.0
0.91,513.0
0.911,512.0
0.912,512.0
0.913,512.0
0.914,511.0
0.915,508.0
0.916,508.0
0.917,506.0
0.918,507.0
0.919,507.0
0.92,505.0
0.921,507.0
0.922,506.0
0.923,506.0
0.924,510.0
0.925,510.0
0.926,512.0
0.927,512.0
0.928,512.0
0.929,513.0
0.93,511.0
0.931,510.0
0.932,509.0
0.933,507.0
0.934,505.0
0.935,504.0
0.936,507.0
0.937,505.0
0.9380000000000001,507.0
0.9390000000000001,505.0
0.9400000000000001,507.0
0.9410000000000001,511.0
0.9420000000000001,513.0
0.9430000000000001,513.0
0.9440000000000001,515.0
0.9450000000000001,512.0
0.9460000000000001,512.0
0.9470000000000001,511.0
0.9480000000000001,508.0
0.9490000000000001,509.0
0.9500000000000001,506.0
0.9510000000000001,504.0
0.9520000000000001,504.0
0.9530000000000001,504.0
0.9540000000000001,507.0
0.9550000000000001,506.0
0.9560000000000001,507.0
0.9570000000000001,509.0
0.9580000000000001,511.0
0.9590000000000001,514.0
0.96,514.0
0.961,512.0
0.962,511.0
0.963,511.0
0.964,511.0
0.965,509.0
0.966,508.0
0.967,505.0
0.968,507.0
0.969,506.0
0.97,506.0
0.971,508.0
0.972,505.0
0.973,508.0
0.974,509.0
0.975,511.0
0.976,512.0
0.977,510.0
0.978,512.0
0.979,512.0
0.98,512.0
0.981,510.0
0.982,510.0
0.983,506.0
0.984,504.0
0.985,506.0
0.986,508.0
0.987,507.0
0.988,508.0
0.989,506.0
0.99,510.0
0.991,508.0
0.992,512.0
0.993,515.0
0.994,513.0
0.995,512.0
0.996,510.0
0.997,512.0
0.998,510.0
0.999,508.0
1.0,505.0
1.0010000000000001,504.0
1.002,504.0
1.0030000000000001,509.0
1.004,506.0
1.0050000000000001,506.0
1.006,507.0
1.0070000000000001,510.0
1.008,512.0
1.0090000000000001,514.0
1.01,513.0
1.0110000000000001,511.0
1.012,511.0
1.0130000000000001,512.0
1.014,509.0
1.0150000000000001,512.0
1.016,510.0
1.0170000000000001,505.0
1.018,503.0
1.0190000000000001,505.0
1.02,504.0
1.0210000000000001,505.0
1.022,509.0
1.0230000000000001,506.0
1.024,509.0
1.025,512.0
1.026,513.0
1.027,513.0
1.028,511.0
1.029,511.0
1.03,509.0
1.031,511.0
1.032,510.0
1.033,509.0
1.034,505.0
1.035,505.0
1.036,506.0
1.037,505.0
1.038,506.0
1.039,506.0
1.04,509.0
1.041,512.0
1.042,512.0
1.043,513.0
1.044,513.0
1.045,513.0
1.046,513.0
1.047,511.0
1.048,512.0
1.049,509.0
1.05,506.0
1.051,504.0
1.052,505.0
1.053,506.0
1.054,508.0
1.055,508.0
1.056,508.0
1.057,508.0
1.058,512.0
1.059,513.0
1.06,511.0
1.061,510.0
1.062,511.0
1.063,510.0
1.064,511.0
1.065,511.0
1.066,507.0
1.067,505.0
1.068,505.0
1.069,505.0
1.07,507.0
1.071,507.0
1.072,508.0
1.073,507.0
1.074,511.0
1.075,511.0
1.076,511.0
1.077,511.0
1.078,512.0
1.079,512.0
1.08,510.0
1.081,507.0
1.082,507.0
1.083,507.0
1.084,504.0
1.085,505.0
1.086,507.0
1.087,507.0
1.088,507.0
1.089,508.0
1.09,509.0
1.091,510.0
1.092,512.0
1.093,512.0
1.094,513.0
1.095,512.0
1.096,510.0
1.097,511.0
1.098,508.0
1.099,510.0
1.1,507.0
1.101,505.0
1.102,505.0
1.103,505.0
1.104,510.0
1.105,508.0
1.106,508.0
1.107,508.0
1.108,509.0
1.109,512.0
1.11,513.0
1.111,511.0
1.112,512.0
1.113,512.0
1.114,509.0
1.115,510.0
1.116,506.0
1.117,504.0
1.118,501.0
1.119,507.0
1.12,509.0
1.121,508.0
1.122,509.0
1.123,507.0
1.124,510.0
1.125,511.0
1.1260000000000001,513.0
1.127,510.0
1.1280000000000001,511.0
1.129,512.0
1.1300000000000001,509.0
1.131,513.0
1.1320000000000001,509.0
1.133,509.0
1.1340000000000001,506.0
1.135,504.0
1.1360000000000001,507.0
1.137,505.0
1.1380000000000001,504.0
1.139,506.0
1.1400000000000001,508.0
1.141,510.0
1.1420000000000001,511.0
1.143,512.0
1.1440000000000001,512.0
1.145,513.0
1.1460000000000001,512.0
1.147,509.0
1.1480000000000001,511.0
1.149,509.0
1.1500000000000001,507.0
1.151,504.0
1.1520000000000001,505.0
1.153,506.0
1.154,508.0
1.155,507.0
1.156,507.0
1.157,510.0
1.158,511.0
1.159,512.0
1.16,512.0
1.161,512.0
1.162,510.0
1.163,511.0
1.164,511.0
1.165,510.0
1.166,508.0
1.167,505.0
1.168,505.0
1.169,507.0
1.17,507.0
1.171,506.0
1.172,508.0
1.173,508.0
1.174,513.0
1.175,511.0
1.176,514.0
1.177,513.0
1.178,512.0
1.179,512.0
1.18,509.0
1.181,509.0
1.182,508.0
1.183,505.0
1.184,504.0
1.185,506.0
1.186,507.0
1.187,507.0
1.188,507.0
1.189,508.0
1.19,508.0
1.191,510.0
1.192,512.0
1.193,514.0
1.194,513.0
1.195,512.0
1.196,511.0
1.197,512.0
1.198,511.0
1.199,507.0
1.2,506.0
1.201,504.0
1.202,505.0
1.203,505.0
1.204,507.0
1.205,507.0
1.206,510.0
1.207,508.0
1.208,512.0
1.209,513.0
1.21,512.0
1.211,511.0
1.212,512.0
1.213,512.0
1.214,509.0
1.215,510.0
1.216,509.0
1.217,508.0
1.218,505.0
1.219,504.0
1.22,507.0
1.221,509.0
1.222,507.0
1.223,509.0
1.224,510.0
1.225,513.0
1.226,513.0
1.227,513.0
1.228,513.0
1.229,512.0
1.23,510.0
1.231,510.0
1.232,507.0
1.233,506.0
1.234,504.0
1.235,505.0
1.236,504.0
1.237,507.0
1.238,508.0
1.239,508.0
1.24,509.0
1.241,511.0
1.242,511.0
1.243,513.0
1.244,512.0
1.245,511.0
1.246,510.0
1.247,509.0
1.248,509.0
1.249,508.0
1.25,505.0
1.2510000000000001,505.0
1.252,506.0
1.2530000000000001,507.0
1.254,507.0
1.2550000000000001,505.0
1.256,508.0
1.2570000000000001,506.0
1.258,510.0
1.2590000000000001,512.0
1.26,513.0
1.2610000000000001,513.0
1.262,511.0
1.2630000000000001,513.0
1.264,511.0
1.2650000000000001,508.0
1.266,506.0
1.2670000000000001,505.0
1.268,506.0
1.2690000000000001,507.0
1.27,505.0
1.2710000000000001,506.0
1.272,509.0
1.2730000000000001,509.0
1.274,512.0
1.2750000000000001,513.0
1.276,514.0
1.2770000000000001,513.0
1.278,511.0
1.2790000000000001,510.0
1.28,510.0
1.281,508.0
1.282,508.0
1.283,507.0
1.284,505.0
1.285,504.0
1.286,506.0
1.287,506.0
1.288,504.0
1.289,506.0
1.29,509.0
1.291,510.0
1.292,513.0
1.293,511.0
1.294,513.0
1.295,510.0
1.296,511.0
1.297,512.0
1.298,508.0
1.299,507.0
1.3,505.0
1.301,504.0
1.302,506.0
1.303,508.0
1.304,509.0
1.305,508.0
1.306,508.0
1.307,511.0
1.308,512.0
1.309,512.0
1.31,511.0
1.311,512.0
1.312,512.0
1.313,511.0
1.314,509.0
1.315,509.0
1.316,506.0
1.317,504.0
1.318,504.0
1.319,504.0
1.32,504.0
1.321,508.0
1.322,508.0
1.323,508.0
1.324,510.0
1.325,513.0
1.326,514.0
1.327,512.0
1.328,513.0
1.329,512.0
1.33,509.0
1.331,511.0
1.332,510.0
1.333,505.0
1.334,502.0
1.335,505.0
1.336,504.0
1.337,505.0
1.338,507.0
1.339,508.0
1.34,510.0
1.341,513.0
1.342,514.0
1.343,513.0
1.344,512.0
1.345,513.0
1.346,511.0
1.347,508.0
1.348,511.0
1.349,507.0
1.35,506.0
1.351,504.0
1.352,507.0
1.353,506.0
1.354,508.0
1.355,508.0
1.356,508.0
1.357,512.0
1.358,510.0
1.359,512.0
1.36,512.0
1.361,512.0
1.362,510.0
1.363,511.0
1.364,509.0
1.365,507.0
1.366,506.0
1.367,503.0
1.368,504.0
1.369,502.0
1.37,505.0
1.371,508.0
1.372,508.0
1.373,507.0
1.374,510.0
1.375,511.0
1.3760000000000001,512.0
1.377,512.0
1.3780000000000001,513.0
1.379,510.0
1.3800000000000001,509.0
1.381,511.0
1.3820000000000001,509.0
1.383,506.0
1.3840000000000001,505.0
1.385,507.0
1.3860000000000001,508.0
1.387,508.0
1.3880000000000001,508.0
1.389,508.0
1.3900000000000001,509.0
1.391,510.0
1.3920000000000001,513.0
1.393,514.0
1.3940000000000001,512.0
1.395,512.0
1.3960000000000001,509.0
1.397,508.0
1.3980000000000001,508.0
1.399,508.0
1.4000000000000001,505.0
1.401,504.0
1.4020000000000001,508.0
1.403,507.0
1.4040000000000001,507.0
1.405,505.0
1.4060000000000001,507.0
1.407,508.0
1.408,511.0
1.409,511.0
1.41,512.0
1.411,512.0
1.412,511.0
1.413,512.0
1.414,508.0
1.415,508.0
1.416,508.0
1.417,505.0
1.418,504.0
1.419,507.0
1.42,508.0
1.421,508.0
1.422,507.0
1.423,509.0
1.424,510.0
1.425,512.0
1.426,514.0
1.427,511.0
1.428,511.0
1.429,512.0
1.43,510.0
1.431,509.0
1.432,510.0
1.433,505.0
1.434,504.0
1.435,505.0
1.436,507.0
1.437,505.0
1.438,506.0
1.439,504.0
1.44,507.0
1.441,513.0
1.442,511.0
1.443,512.0
1.444,513.0
1.445,511.0
1.446,511.0
1.447,510.0
1.448,509.0
1.449,507.0
1.45,505.0
1.451,504.0
1.452,506.0
1.453,505.0
1.454,506.0
1.455,508.0
1.456,510.0
1.457,510.0
1.458,512.0
1.459,512.0
1.46,514.0
1.461,510.0
1.462,511.0
1.463,511.0
1.464,511.0
1.465,510.0
1.466,508.0
1.467,504.0
1.468,505.0
1.469,508.0
1.47,505.0
1.471,509.0
1.472,510.0
1.473,511.0
1.474,511.0
1.475,513.0
1.476,513.0
1.477,512.0
1.478,512.0
1.479,510.0
1.48,509.0
1.481,508.0
1.482,507.0
1.483,507.0
1.484,505.0
1.485,505.0
1.486,505.0
1.487,508.0
1.488,507.0
1.489,508.0
1.49,508.0
1.491,512.0
1.492,513.0
1.493,514.0
1.494,514.0
1.495,512.0
1.496,512.0
1.497,511.0
1.498,510.0
1.499,508.0
1.5,506.0
1.5010000000000001,505.0
1.502,505.0
1.5030000000000001,506.0
1.504,505.0
1.5050000000000001,509.0
1.506,509.0
1.5070000000000001,511.0
1.508,510.0
1.5090000000000001,512.0
1.51,512.0
1.5110000000000001,512.0
1.512,511.0
1.5130000000000001,509.0
1.514,509.0
1.5150000000000001,508.0
1.516,505.0
1.5170000000000001,505.0
1.518,503.0
1.5190000000000001,506.0
1.52,507.0
1.5210000000000001,508.0
1.522,508.0
1.5230000000000001,509.0
1.524,511.0
1.5250000000000001,514.0
1.526,513.0
1.5270000000000001,511.0
1.528,511.0
1.5290000000000001,514.0
1.53,512.0
1.5310000000000001,509.0
1.532,507.0
1.5330000000000001,504.0
1.534,506.0
1.5350000000000001,505.0
1.536,506.0
1.537,506.0
1.538,509.0
1.539,508.0
1.54,509.0
1.541,511.0
1.542,512.0
1.543,511.0
1.544,513.0
1.545,512.0
1.546,511.0
1.547,509.0
1.548,509.0
1.549,507.0
1.55,505.0
1.551,504.0
1.552,507.0
1.553,507.0
1.554,508.0
1.555,508.0
1.556,510.0
1.557,511.0
1.558,512.0
1.559,513.0
1.56,512.0
1.561,512.0
1.562,512.0
1.563,510.0
1.564,509.0
1.565,507.0
1.566,507.0
1.567,504.0
1.568,504.0
1.569,505.0
1.57,507.0
1.571,508.0
1.572,508.0
1.573,510.0
1.574,512.0
1.575,512.0
1.576,512.0
1.577,512.0
1.578,511.0
1.579,511.0
1.58,509.0
1.581,510.0
1.582,506.0
1.583,505.0
1.584,505.0
1.585,505.0
1.586,505.0
1.587,505.0
1.588,508.0
1.589,508.0
1.59,510.0
1.591,513.0
1.592,515.0
1.593,513.0
1.594,513.0
1.595,512.0
1.596,509.0
1.597,510.0
1.598,510.0
1.599,509.0
1.6,504.0
1.601,506.0
1.602,505.0
1.603,508.0
1.604,505.0
1.605,507.0
1.606,508.0
1.607,509.0
1.608,513.0
1.609,512.0
1.61,514.0
1.611,510.0
1.612,511.0
1.613,512.0
1.614,508.0
1.615,509.0
1.616,505.0
1.617,506.0
1.618,506.0
1.619,504.0
1.62,507.0
1.621,508.0
1.622,508.0
1.623,509.0
1.624,512.0
1.625,514.0
1.6260000000000001,512.0
1.627,510.0
1.6280000000000001,512.0
1.629,511.0
1.6300000000000001,510.0
1.631,510.0
1.6320000000000001,508.0
1.633,504.0
1.6340000000000001,506.0
1.635,507.0
1.6360000000000001,507.0
1.637,507.0
1.6380000000000001,506.0
1.639,507.0
1.6400000000000001,509.0
1.641,512.0
1.6420000000000001,516.0
1.643,513.0
1.6440000000000001,511.0
1.645,512.0
1.6460000000000001,509.0
1.647,509.0
1.6480000000000001,510.0
1.649,507.0
1.6500000000000001,505.0
1.651,504.0
1.6520000000000001,504.0
1.653,504.0
1.6540000000000001,506.0
1.655,509.0
1.6560000000000001,511.0
1.657,510.0
1.6580000000000001,513.0
1.659,512.0
1.6600000000000001,511.0
1.661,511.0
1.6620000000000001,512.0
1.663,510.0
1.6640000000000001,509.0
1.665,509.0
1.666,506.0
1.667,506.0
1.668,505.0
1.669,506.0
1.67,509.0
1.671,511.0
1.672,508.0
1.673,509.0
1.674,511.0
1.675,513.0
1.676,513.0
1.677,513.0
1.678,512.0
1.679,511.0
1.68,509.0
1.681,509.0
1.682,507.0
1.683,505.0
1.684,506.0
1.685,505.0
1.686,507.0
1.687,507.0
1.688,505.0
1.689,506.0
1.69,509.0
1.691,512.0
1.692,511.0
1.693,511.0
1.694,512.0
1.695,512.0
1.696,511.0
1.697,510.0
1.698,507.0
1.699,509.0
1.7,507.0
1.701,506.0
1.702,505.0
1.703,505.0
1.704,509.0
1.705,507.0
1.706,510.0
1.707,512.0
1.708,512.0
1.709,511.0
1.71,513.0
1.711,513.0
1.712,512.0
1.713,509.0
1.714,510.0
1.715,507.0
1.716,506.0
1.717,505.0
1.718,504.0
1.719,506.0
1.72,506.0
1.721,507.0
1.722,507.0
1.723,510.0
1.724,512.0
1.725,511.0
1.726,512.0
1.727,511.0
1.728,513.0
1.729,512.0
1.73,511.0
1.731,507.0
1.732,507.0
1.733,508.0
1.734,503.0
1.735,505.0
1.736,507.0
1.737,506.0
1.738,508.0
1.739,510.0
1.74,510.0
1.741,512.0
1.742,513.0
1.743,512.0
1.744,512.0
1.745,510.0
1.746,510.0
1.747,510.0
1.748,510.0
1.749,507.0
1.75,506.0
1.7510000000000001,506.0
1.752,505.0
1.7530000000000001,506.0
1.754,508.0
1.7550000000000001,507.0
1.756,507.0
1.7570000000000001,510.0
1.758,510.0
1.7590000000000001,511.0
1.76,512.0
1.7610000000000001,512.0
1.762,513.0
1.7630000000000001,509.0
1.764,508.0
1.7650000000000001,510.0
1.766,506.0
1.7670000000000001,505.0
1.768,508.0
1.7690000000000001,508.0
1.77,508.0
1.7710000000000001,506.0
1.772,508.0
1.7730000000000001,509.0
1.774,510.0
1.7750000000000001,512.0
1.776,512.0
1.7770000000000001,513.0
1.778,510.0
1.7790000000000001,510.0
1.78,510.0
1.7810000000000001,508.0
1.782,507.0
1.7830000000000001,506.0
1.784,506.0
1.7850000000000001,506.0
1.786,506.0
1.7870000000000001,506.0
1.788,506.0
1.7890000000000001,509.0
1.79,509.0
1.7910000000000001,513.0
1.792,513.0
1.793,511.0
1.794,509.0
1.795,512.0
1.796,510.0
1.797,508.0
1.798,508.0
1.799,506.0
1.8,504.0
1.801,506.0
1.802,505.0
1.803,506.0
1.804,508.0
1.805,510.0
1.806,511.0
1.807,510.0
1.808,512.0
1.809,514.0
1.81,513.0
1.811,511.0
1.812,511.0
1.813,511.0
1.814,508.0
1.815,509.0
1.816,506.0
1.817,505.0
1.818,504.0
1.819,505.0
1.82,504.0
1.821,506.0
1.822,509.0
1.823,510.0
1.824,512.0
1.825,515.0
1.826,513.0
1.827,511.0
1.828,514.0
1.829,511.0
1.83,510.0
1.831,512.0
1.832,507.0
1.833,506.0
1.834,507.0
1.835,505.0
1.836,505.0
1.837,506.0
1.838,508.0
1.839,508.0
1.84,510.0
1.841,511.0
1.842,515.0
1.843,511.0
1.844,512.0
1.845,511.0
1.846,509.0
1.847,508.0
1.848,510.0
1.849,508.0
1.85,505.0
1.851,505.0
1.852,505.0
1.853,506.0
1.854,511.0
1.855,508.0
1.856,508.0
1.857,511.0
1.858,511.0
1.859,513.0
1.86,512.0
1.861,511.0
1.862,512.0
1.863,511.0
1.864,510.0
1.865,509.0
1.866,507.0
1.867,504.0
1.868,504.0
1.869,507.0
1.87,505.0
1.871,508.0
1.872,508.0
1.873,510.0
1.874,510.0
1.875,512.0
1.8760000000000001,513.0
1.877,511.0
1.8780000000000001,511.0
1.879,508.0
1.8800000000000001,510.0
1.881,510.0
1.8820000000000001,507.0
1.883,505.0
1.8840000000000001,504.0
1.885,504.0
1.8860000000000001,508.0
1.887,508.0
1.8880000000000001,508.0
1.889,507.0
1.8900000000000001,512.0
1.891,511.0
1.8920000000000001,512.0
1.893,513.0
1.8940000000000001,512.0
1.895,511.0
1.8960000000000001,510.0
1.897,511.0
1.8980000000000001,510.0
1.899,506.0
1.9000000000000001,506.0
1.901,505.0
1.9020000000000001,507.0
1.903,507.0
1.9040000000000001,508.0
1.905,509.0
1.9060000000000001,510.0
1.907,512.0
1.9080000000000001,511.0
1.909,511.0
1.9100000000000001,512.0
1.911,512.0
1.9120000000000001,510.0
1.913,512.0
1.9140000000000001,509.0
1.915,507.0
1.9160000000000001,506.0
1.917,503.0
1.9180000000000001,505.0
1.919,505.0
1.92,507.0
1.921,507.0
1.922,511.0
1.923,512.0
1.924,511.0
1.925,513.0
1.926,515.0
1.927,512.0
1.928,509.0
1.929,509.0
1.93,511.0
1.931,510.0
1.932,508.0
1.933,505.0
1.934,504.0
1.935,504.0
1.936,507.0
1.937,503.0
1.938,509.0
1.939,509.0
1.94,510.0
1.941,512.0
1.942,513.0
1.943,512.0
1.944,512.0
1.945,510.0
1.946,511.0
1.947,510.0
1.948,507.0
1.949,508.0
1.95,505.0
1.951,506.0
1.952,505.0
1.953,506.0
1.954,508.0
1.955,508.0
1.956,510.0
1.957,511.0
1.958,512.0
1.959,512.0
1.96,513.0
1.961,511.0
1.962,511.0
1.963,509.0
1.964,508.0
1.965,508.0
1.966,507.0
1.967,505.0
1.968,506.0
1.969,508.0
1.97,508.0
1.971,510.0
1.972,508.0
1.973,510.0
1.974,513.0
1.975,512.0
1.976,513.0
1.977,511.0
1.978,512.0
1.979,511.0
1.98,508.0
1.981,508.0
1.982,505.0
1.983,504.0
1.984,505.0
1.985,505.0
1.986,505.0
1.987,507.0
1.988,507.0
1.989,510.0
1.99,511.0
1.991,512.0
1.992,513.0
1.993,514.0
1.994,511.0
1.995,511.0
1.996,510.0
1.997,509.0
1.998,509.0
1.999,505.0
2.0,504.0
2.001,503.0
2.0020000000000002,505.0
2.003,508.0
2.004,508.0
2.005,506.0
2.0060000000000002,511.0
2.007,512.0
2.008,514.0
2.009,513.0
2.0100000000000002,512.0
2.011,510.0
2.012,509.0
2.013,510.0
2.0140000000000002,508.0
2.015,507.0
2.016,507.0
2.017,505.0
2.0180000000000002,505.0
2.019,505.0
2.02,506.0
2.021,508.0
2.0220000000000002,507.0
2.023,511.0
2.024,511.0
2.025,515.0
2.0260000000000002,514.0
2.027,513.0
2.028,511.0
2.029,510.0
2.0300000000000002,509.0
2.031,510.0
2.032,508.0
2.033,506.0
2.0340000000000003,507.0
2.035,505.0
2.036,505.0
2.037,508.0
2.0380000000000003,510.0
2.039,510.0
2.04,510.0
2.041,514.0
2.0420000000000003,513.0
2.043,510.0
2.044,511.0
2.045,511.0
2.0460000000000003,510.0
2.047,510.0
2.048,508.0
2.049,504.0
2.05,504.0
2.051,507.0
2.052,505.0
2.053,506.0
2.054,508.0
2.055,507.0
2.056,509.0
2.057,511.0
2.058,512.0
2.059,513.0
2.06,511.0
2.061,512.0
2.062,512.0
2.063,508.0
2.064,508.0
2.065,509.0
2.066,507.0
2.067,506.0
2.068,505.0
2.069,507.0
2.07,508.0
2.071,507.0
2.072,509.0
2.073,509.0
2.074,512.0
2.075,513.0
2.076,514.0
2.077,514.0
2.078,512.0
2.079,508.0
2.08,507.0
2.081,508.0
2.082,505.0
2.083,503.0
2.084,504.0
2.085,507.0
2.086,505.0
2.087,508.0
2.088,508.0
2.089,509.0
2.09,511.0
2.091,512.0
2.092,512.0
2.093,511.0
2.094,511.0
2.095,511.0
2.096,511.0
2.097,509.0
2.098,509.0
2.099,506.0
2.1,504.0
2.101,505.0
2.102,506.0
2.103,508.0
2.104,508.0
2.105,507.0
2.106,509.0
2.107,511.0
2.108,515.0
2.109,515.0
2.11,510.0
2.111,509.0
2.112,509.0
2.113,509.0
2.114,510.0
2.115,507.0
2.116,505.0
2.117,507.0
2.118,506.0
2.119,505.0
2.12,505.0
2.121,510.0
2.122,508.0
2.123,512.0
2.124,513.0
2.125,512.0
2.126,511.0
2.1270000000000002,512.0
2.128,510.0
2.129,514.0
2.13,511.0
2.1310000000000002,508.0
2.132,506.0
2.133,505.0
2.134,504.0
2.1350000000000002,503.0
2.136,506.0
2.137,505.0
2.138,506.0
2.1390000000000002,510.0
2.14,511.0
2.141,513.0
2.142,513.0
2.1430000000000002,511.0
2.144,512.0
2.145,509.0
2.146,509.0
2.1470000000000002,507.0
2.148,507.0
2.149,505.0
2.15,506.0
2.1510000000000002,504.0
2.152,504.0
2.153,507.0
2.154,508.0
2.1550000000000002,510.0
2.156,512.0
2.157,515.0
2.158,515.0
2.1590000000000003,513.0
2.16,513.0
2.161,511.0
2.162,510.0
2.1630000000000003,507.0
2.164,509.0
2.165,508.0
2.166,507.0
2.1670000000000003,505.0
2.168,505.0
2.169,508.0
2.17,505.0
2.1710000000000003,509.0
2.172,511.0
2.173,510.0
2.174,511.0
2.1750000000000003,514.0
2.176,511.0
2.177,509.0
2.178,510.0
2.179,509.0
2.18,507.0
2.181,506.0
2.182,505.0
2.183,505.0
2.184,507.0
2.185,505.0
2.186,508.0
2.187,505.0
2.188,509.0
2.189,508.0
2.19,512.0
2.191,513.0
2.192,514.0
2.193,512.0
2.194,514.0
2.195,511.0
2.196,510.0
2.197,511.0
2.198,509.0
2.199,509.0
2.2,504.0
2.201,507.0
2.202,507.0
2.203,507.0
2.204,508.0
2.205,506.0
2.206,508.0
2.207,512.0
2.208,512.0
2.209,513.0
2.21,512.0
2.211,511.0
2.212,513.0
2.213,511.0
2.214,511.0
2.215,505.0
2.216,505.0
2.217,506.0
2.218,505.0
2.219,505.0
2.22,509.0
2.221,507.0
2.222,508.0
2.223,511.0
2.224,510.0
2.225,513.0
2.226,512.0
2.227,511.0
2.228,510.0
2.229,509.0
2.23,508.0
2.231,507.0
2.232,507.0
2.233,502.0
2.234,506.0
2.235,506.0
2.236,507.0
2.237,507.0
2.238,508.0
2.239,509.0
2.24,512.0
2.241,514.0
2.242,512.0
2.243,511.0
2.244,512.0
2.245,511.0
2.246,510.0
2.247,509.0
2.248,509.0
2.249,507.0
2.25,505.0
2.251,506.0
2.2520000000000002,507.0
2.253,507.0
2.254,507.0
2.255,505.0
2.2560000000000002,508.0
2.257,511.0
2.258,514.0
2.259,512.0
2.2600000000000002,513.0
2.261,512.0
2.262,511.0
2.263,508.0
2.2640000000000002,510.0
2.265,509.0
2.266,508.0
2.267,504.0
2.2680000000000002,505.0
2.269,507.0
2.27,508.0
2.271,508.0
2.2720000000000002,509.0
2.273,511.0
2.274,513.0
2.275,513.0
2.2760000000000002,512.0
2.277,511.0
2.278,512.0
2.279,509.0
2.2800000000000002,510.0
2.281,508.0
2.282,506.0
2.283,504.0
2.2840000000000003,505.0
2.285,505.0
2.286,507.0
2.287,507.0
2.2880000000000003,507.0
2.289,509.0
2.29,513.0
2.291,512.0
2.2920000000000003,512.0
2.293,511.0
2.294,512.0
2.295,508.0
2.2960000000000003,510.0
2.297,506.0
2.298,508.0
2.299,505.0
2.3000000000000003,505.0
2.301,507.0
2.302,507.0
2.303,506.0
2.3040000000000003,508.0
2.305,509.0
2.306,512.0
2.307,513.0
2.308,512.0
2.309,511.0
2.31,511.0
2.311,511.0
2.312,510.0
2.313,509.0
2.314,510.0
2.315,508.0
2.316,505.0
2.317,505.0
2.318,507.0
2.319,505.0
2.32,506.0
2.321,508.0
2.322,508.0
2.323,509.0
2.324,513.0
2.325,512.0
2.326,513.0
2.327,511.0
2.328,512.0
2.329,511.0
2.33,510.0
2.331,509.0
2.332,507.0
2.333,504.0
2.334,505.0
2.335,507.0
2.336,506.0
2.337,509.0
2.338,507.0
2.339,510.0
2.34,510.0
2.341,510.0
2.342,512.0
2.343,511.0
2.344,511.0
2.345,511.0
2.346,509.0
2.347,508.0
2.348,508.0
2.349,505.0
2.35,504.0
2.351,505.0
2.352,507.0
2.353,506.0
2.354,508.0
2.355,508.0
2.356,510.0
2.357,510.0
2.358,515.0
2.359,512.0
2.36,511.0
2.361,509.0
2.362,509.0
2.363,512.0
2.364,510.0
2.365,507.0
2.366,506.0
2.367,506.0
2.368,508.0
2.369,508.0
2.37,508.0
2.371,508.0
2.372,507.0
2.373,510.0
2.374,512.0
2.375,512.0
2.376,513.0
2.3770000000000002,512.0
2.378,510.0
2.379,509.0
2.38,510.0
2.3810000000000002,509.0
2.382,508.0
2.383,504.0
2.384,506.0
2.3850000000000002,504.0
2.386,507.0
2.387,507.0
2.388,508.0
2.3890000000000002,510.0
2.39,512.0
2.391,514.0
2.392,512.0
2.3930000000000002,513.0
2.394,512.0
2.395,509.0
2.396,509.0
2.3970000000000002,509.0
2.398,508.0
2.399,505.0
2.4,505.0
2.4010000000000002,505.0
2.402,505.0
2.403,506.0
2.404,508.0
2.4050000000000002,509.0
2.406,509.0
2.407,512.0
2.408,513.0
2.4090000000000003,514.0
2.41,513.0
2.411,512.0
2.412,511.0
2.4130000000000003,510.0
2.414,509.0
2.415,508.0
2.416,506.0
2.4170000000000003,505.0
2.418,507.0
2.419,505.0
2.42,508.0
2.4210000000000003,507.0
2.422,505.0
2.423,505.0
2.424,505.0
2.4250000000000003,506.0
2.426,508.0
2.427,510.0
2.428,510.0
2.4290000000000003,510.0
2.43,512.0
2.431,510.0
2.432,507.0
2.433,511.0
2.434,513.0
2.435,515.0
2.436,514.0
2.437,514.0
2.438,512.0
2.439,511.0
2.44,512.0
2.441,513.0
2.442,511.0
2.443,509.0
2.444,503.0
2.445,496.0
2.446,494.0
2.447,498.0
2.448,499.0
2.449,503.0
2.45,506.0
2.451,507.0
2.452,507.0
2.453,509.0
2.454,513.0
2.455,514.0
2.456,520.0
2.457,523.0
2.458,521.0
2.459,527.0
2.46,523.0
2.461,515.0
2.462,507.0
2.463,506.0
2.464,503.0
2.465,500.0
2.466,500.0
2.467,499.0
2.468,493.0
2.469,497.0
2.47,499.0
2.471,505.0
2.472,509.0
2.473,514.0
2.474,519.0
2.475,521.0
2.476,521.0
2.477,519.0
2.478,519.0
2.479,521.0
2.48,515.0
2.481,514.0
2.482,505.0
2.483,493.0
2.484,489.0
2.485,488.0
2.486,493.0
2.487,496.0
2.488,502.0
2.489,507.0
2.49,512.0
2.491,516.0
2.492,519.0
2.493,520.0
2.494,521.0
2.495,521.0
2.496,521.0
2.497,521.0
2.498,516.0
2.499,514.0
2.5,510.0
2.501,506.0
2.5020000000000002,505.0
2.503,500.0
2.504,499.0
2.505,496.0
2.5060000000000002,499.0
2.507,499.0
2.508,499.0
2.509,500.0
2.5100000000000002,505.0
2.511,506.0
2.512,509.0
2.513,512.0
2.5140000000000002,512.0
2.515,511.0
2.516,511.0
2.517,512.0
2.5180000000000002,510.0
2.519,515.0
2.52,513.0
2.521,508.0
2.5220000000000002,509.0
2.523,503.0
2.524,507.0
2.525,508.0
2.5260000000000002,504.0
2.527,510.0
2.528,512.0
2.529,513.0
2.5300000000000002,511.0
2.531,510.0
2.532,507.0
2.533,504.0
2.5340000000000003,510.0
2.535,515.0
2.536,519.0
2.537,521.0
2.5380000000000003,521.0
2.539,524.0
2.54,520.0
2.541,512.0
2.5420000000000003,504.0
2.543,503.0
2.544,499.0
2.545,492.0
2.5460000000000003,478.0
2.547,471.0
2.548,479.0
2.549,490.0
2.5500000000000003,499.0
2.551,503.0
2.552,513.0
2.553,517.0
2.5540000000000003,523.0
2.555,527.0
2.556,535.0
2.557,543.0
2.5580000000000003,546.0
2.559,539.0
2.56,525.0
2.561,520.0
2.562,513.0
2.563,506.0
2.564,502.0
2.565,497.0
2.566,495.0
2.567,493.0
2.568,496.0
2.569,498.0
2.57,503.0
2.571,507.0
2.572,506.0
2.573,505.0
2.574,510.0
2.575,510.0
2.576,513.0
2.577,517.0
2.578,514.0
2.579,508.0
2.58,508.0
2.581,508.0
2.582,501.0
2.583,502.0
2.584,507.0
2.585,507.0
2.586,505.0
2.587,504.0
2.588,499.0
2.589,502.0
2.59,505.0
2.591,504.0
2.592,507.0
2.593,506.0
2.594,505.0
2.595,507.0
2.596,512.0
2.597,511.0
2.598,508.0
2.599,506.0
2.6,510.0
2.601,512.0
2.602,512.0
2.603,513.0
2.604,519.0
2.605,521.0
2.606,521.0
2.607,522.0
2.608,516.0
2.609,515.0
2.61,510.0
2.611,505.0
2.612,505.0
2.613,496.0
2.614,485.0
2.615,469.0
2.616,473.0
2.617,487.0
2.618,499.0
2.619,509.0
2.62,519.0
2.621,525.0
2.622,531.0
2.623,541.0
2.624,540.0
2.625,542.0
2.626,542.0
2.6270000000000002,541.0
2.628,533.0
2.629,527.0
2.63,511.0
2.6310000000000002,492.0
2.632,486.0
2.633,482.0
2.634,479.0
2.6350000000000002,476.0
2.636,482.0
2.637,479.0
2.638,455.0
2.6390000000000002,463.0
2.64,487.0
2.641,507.0
2.642,523.0
2.6430000000000002,538.0
2.644,546.0
2.645,549.0
2.646,547.0
2.6470000000000002,537.0
2.648,541.0
2.649,546.0
2.65,545.0
2.6510000000000002,541.0
2.652,518.0
2.653,503.0
2.654,496.0
2.6550000000000002,489.0
2.656,486.0
2.657,487.0
2.658,491.0
2.6590000000000003,491.0
2.66,486.0
2.661,488.0
2.662,484.0
2.6630000000000003,482.0
2.664,486.0
2.665,493.0
2.666,503.0
2.6670000000000003,509.0
2.668,515.0
2.669,519.0
2.67,515.0
2.6710000000000003,515.0
2.672,524.0
2.673,528.0
2.674,529.0
2.6750000000000003,527.0
2.676,518.0
2.677,516.0
2.678,510.0
2.6790000000000003,508.0
2.68,502.0
2.681,496.0
2.682,499.0
2.6830000000000003,502.0
2.684,502.0
2.685,506.0
2.686,508.0
2.6870000000000003,508.0
2.688,511.0
2.689,516.0
2.69,513.0
2.691,509.0
2.692,508.0
2.693,514.0
2.694,514.0
2.695,513.0
2.696,515.0
2.697,508.0
2.698,484.0
2.699,491.0
2.7,503.0
2.701,515.0
2.702,517.0
2.703,516.0
2.704,516.0
2.705,524.0
2.706,522.0
2.707,522.0
2.708,527.0
2.709,524.0
2.71,521.0
2.711,511.0
2.712,504.0
2.713,499.0
2.714,492.0
2.715,477.0
2.716,481.0
2.717,487.0
2.718,487.0
2.719,496.0
2.72,503.0
2.721,503.0
2.722,490.0
2.723,498.0
2.724,511.0
2.725,517.0
2.726,519.0
2.727,529.0
2.728,534.0
2.729,538.0
2.73,533.0
2.731,527.0
2.732,523.0
2.733,516.0
2.734,511.0
2.735,511.0
2.736,507.0
2.737,501.0
2.738,504.0
2.739,508.0
2.74,508.0
2.741,503.0
2.742,500.0
2.743,510.0
2.744,512.0
2.745,513.0
2.746,510.0
2.747,497.0
2.748,487.0
2.749,474.0
2.75,475.0
2.751,489.0
2.7520000000000002,504.0
2.753,516.0
2.754,524.0
2.755,525.0
2.7560000000000002,533.0
2.757,539.0
2.758,543.0
2.759,546.0
2.7600000000000002,547.0
2.761,537.0
2.762,521.0
2.763,509.0
2.7640000000000002,500.0
2.765,488.0
2.766,486.0
2.767,480.0
2.7680000000000002,478.0
2.769,481.0
2.77,486.0
2.771,496.0
2.7720000000000002,503.0
2.773,508.0
2.774,507.0
2.775,508.0
2.7760000000000002,515.0
2.777,518.0
2.778,513.0
2.779,512.0
2.7800000000000002,512.0
2.781,504.0
2.782,503.0
2.783,509.0
2.7840000000000003,509.0
2.785,509.0
2.786,511.0
2.787,517.0
2.7880000000000003,522.0
2.789,531.0
2.79,527.0
2.791,518.0
2.7920000000000003,513.0
2.793,506.0
2.794,488.0
2.795,485.0
2.7960000000000003,493.0
2.797,493.0
2.798,491.0
2.799,496.0
2.8000000000000003,500.0
2.801,505.0
2.802,511.0
2.803,514.0
2.8040000000000003,520.0
2.805,530.0
2.806,536.0
2.807,537.0
2.8080000000000003,529.0
2.809,520.0
2.81,512.0
2.811,511.0
2.8120000000000003,506.0
2.813,497.0
2.814,492.0
2.815,486.0
2.816,485.0
2.817,492.0
2.818,498.0
2.819,502.0
2.82,506.0
2.821,516.0
2.822,524.0
2.823,532.0
2.824,530.0
2.825,524.0
2.826,516.0
2.827,500.0
2.828,501.0
2.829,499.0
2.83,488.0
2.831,480.0
2.832,477.0
2.833,475.0
2.834,486.0
2.835,495.0
2.836,513.0
2.837,523.0
2.838,541.0
2.839,556.0
2.84,561.0
2.841,557.0
2.842,555.0
2.843,543.0
2.844,528.0
2.845,518.0
2.846,500.0
2.847,477.0
2.848,471.0
2.849,473.0
2.85,478.0
2.851,483.0
2.852,492.0
2.853,501.0
2.854,502.0
2.855,509.0
2.856,520.0
2.857,526.0
2.858,524.0
2.859,523.0
2.86,514.0
2.861,511.0
2.862,510.0
2.863,513.0
2.864,505.0
2.865,494.0
2.866,502.0
2.867,504.0
2.868,504.0
2.869,502.0
2.87,504.0
2.871,508.0
2.872,513.0
2.873,515.0
2.874,514.0
2.875,510.0
2.876,508.0
2.8770000000000002,492.0
2.878,492.0
2.879,492.0
2.88,490.0
2.8810000000000002,493.0
2.882,504.0
2.883,511.0
2.884,521.0
2.8850000000000002,527.0
2.886,530.0
2.887,532.0
2.888,534.0
2.8890000000000002,532.0
2.89,528.0
2.891,506.0
2.892,494.0
2.8930000000000002,488.0
2.894,492.0
2.895,495.0
2.896,501.0
2.8970000000000002,505.0
2.898,512.0
2.899,516.0
2.9,521.0
2.9010000000000002,528.0
2.902,527.0
2.903,521.0
2.904,517.0
2.9050000000000002,511.0
2.906,502.0
2.907,496.0
2.908,496.0
2.9090000000000003,489.0
2.91,489.0
2.911,499.0
2.912,502.0
2.9130000000000003,500.0
2.914,497.0
2.915,498.0
2.916,508.0
2.9170000000000003,513.0
2.918,518.0
2.919,520.0
2.92,523.0
2.9210000000000003,519.0
2.922,519.0
2.923,522.0
2.924,521.0
2.9250000000000003,520.0
2.926,516.0
2.927,507.0
2.928,499.0
2.9290000000000003,491.0
2.93,487.0
2.931,497.0
2.932,499.0
2.9330000000000003,504.0
2.934,507.0
2.935,508.0
2.936,512.0
2.9370000000000003,516.0
2.938,518.0
2.939,518.0
2.94,511.0
2.9410000000000003,500.0
2.942,501.0
2.943,504.0
2.944,507.0
2.945,511.0
2.946,512.0
2.947,515.0
2.948,514.0
2.949,512.0
2.95,512.0
2.951,514.0
2.952,515.0
2.953,514.0
2.954,509.0
2.955,501.0
2.956,502.0
2.957,500.0
2.958,505.0
2.959,505.0
2.96,512.0
2.961,514.0
2.962,512.0
2.963,512.0
2.964,511.0
2.965,515.0
2.966,513.0
2.967,509.0
2.968,510.0
2.969,507.0
2.97,492.0
2.971,491.0
2.972,489.0
2.973,494.0
2.974,502.0
2.975,514.0
2.976,519.0
2.977,526.0
2.978,532.0
2.979,529.0
2.98,526.0
2.981,527.0
2.982,522.0
2.983,509.0
2.984,503.0
2.985,497.0
2.986,498.0
2.987,494.0
2.988,495.0
2.989,503.0
2.99,503.0
2.991,500.0
2.992,503.0
2.993,508.0
2.994,509.0
2.995,509.0
2.996,506.0
2.997,497.0
2.998,498.0
2.999,504.0
3.0,503.0
3.001,508.0
3.0020000000000002,510.0
3.003,508.0
3.004,512.0
3.005,518.0
3.0060000000000002,518.0
3.007,524.0
3.008,525.0
3.009,523.0
3.0100000000000002,525.0
3.011,523.0
3.012,518.0
3.013,511.0
3.0140000000000002,504.0
3.015,496.0
3.016,498.0
3.017,499.0
3.0180000000000002,497.0
3.019,500.0
3.02,503.0
3.021,503.0
3.0220000000000002,508.0
3.023,512.0
3.024,519.0
3.025,519.0
3.0260000000000002,518.0
3.027,516.0
3.028,514.0
3.029,506.0
3.0300000000000002,506.0
3.031,504.0
3.032,507.0
3.033,507.0
3.0340000000000003,497.0
3.035,489.0
3.036,495.0
3.037,506.0
3.0380000000000003,509.0
3.039,511.0
3.04,516.0
3.041,519.0
3.0420000000000003,519.0
3.043,514.0
3.044,523.0
3.045,526.0
3.0460000000000003,527.0
3.047,515.0
3.048,504.0
3.049,504.0
3.0500000000000003,510.0
3.051,508.0
3.052,502.0
3.053,502.0
3.0540000000000003,502.0
3.055,506.0
3.056,512.0
3.057,513.0
3.0580000000000003,511.0
3.059,500.0
3.06,501.0
3.061,494.0
3.0620000000000003,489.0
3.063,489.0
3.064,495.0
3.065,502.0
3.0660000000000003,515.0
3.067,525.0
3.068,535.0
3.069,536.0
3.0700000000000003,521.0
3.071,513.0
3.072,524.0
3.073,524.0
3.074,513.0
3.075,509.0
3.076,509.0
3.077,503.0
3.078,500.0
3.079,502.0
3.08,498.0
3.081,501.0
3.082,508.0
3.083,509.0
3.084,510.0
3.085,502.0
3.086,499.0
3.087,494.0
3.088,482.0
3.089,482.0
3.09,485.0
3.091,495.0
3.092,510.0
3.093,521.0
3.094,532.0
3.095,542.0
3.096,544.0
3.097,544.0
3.098,536.0
3.099,537.0
3.1,521.0
3.101,507.0
3.102,510.0
3.103,505.0
3.104,506.0
3.105,508.0
3.106,506.0
3.107,504.0
3.108,504.0
3.109,497.0
3.11,490.0
3.111,492.0
3.112,490.0
3.113,489.0
3.114,486.0
3.115,493.0
3.116,504.0
3.117,508.0
3.118,513.0
3.119,515.0
3.12,524.0
3.121,521.0
3.122,525.0
3.123,527.0
3.124,512.0
3.125,496.0
3.126,504.0
3.1270000000000002,508.0
3.128,510.0
3.129,515.0
3.13,511.0
3.1310000000000002,503.0
3.132,499.0
3.133,506.0
3.134,502.0
3.1350000000000002,500.0
3.136,503.0
3.137,509.0
3.138,514.0
3.1390000000000002,522.0
3.14,522.0
3.141,517.0
3.142,516.0
3.1430000000000002,510.0
3.144,511.0
3.145,510.0
3.146,504.0
3.1470000000000002,498.0
3.148,492.0
3.149,501.0
3.15,497.0
3.1510000000000002,496.0
3.152,501.0
3.153,504.0
3.154,524.0
3.1550000000000002,536.0
3.156,543.0
3.157,536.0
3.158,535.0
3.1590000000000003,535.0
3.16,524.0
3.161,508.0
3.162,489.0
3.1630000000000003,483.0
3.164,483.0
3.165,484.0
3.166,475.0
3.1670000000000003,481.0
3.168,494.0
3.169,499.0
3.17,501.0
3.1710000000000003,518.0
3.172,533.0
3.173,540.0
3.174,545.0
3.1750000000000003,545.0
3.176,538.0
3.177,520.0
3.178,500.0
3.1790000000000003,494.0
3.18,491.0
3.181,492.0
3.182,494.0
3.1830000000000003,498.0
3.184,500.0
3.185,509.0
3.186,503.0
3.1870000000000003,500.0
3.188,512.0
3.189,518.0
3.19,519.0
3.1910000000000003,518.0
3.192,510.0
3.193,509.0
3.194,504.0
3.1950000000000003,490.0
3.196,479.0
3.197,476.0
3.198,488.0
3.1990000000000003,511.0
3.2,514.0
3.201,517.0
3.202,522.0
3.203,531.0
3.204,538.0
3.205,543.0
3.206,536.0
3.207,519.0
3.208,517.0
3.209,502.0
3.21,489.0
3.211,496.0
3.212,488.0
3.213,482.0
3.214,476.0
3.215,472.0
3.216,473.0
3.217,490.0
3.218,515.0
3.219,532.0
3.22,531.0
3.221,533.0
3.222,537.0
3.223,536.0
3.224,545.0
3.225,547.0
3.226,533.0
3.227,511.0
3.228,500.0
3.229,503.0
3.23,511.0
3.231,515.0
3.232,499.0
3.233,497.0
3.234,490.0
3.235,495.0
3.236,490.0
3.237,493.0
3.238,509.0
3.239,518.0
3.24,524.0
3.241,515.0
3.242,515.0
3.243,511.0
3.244,510.0
3.245,508.0
3.246,505.0
3.247,503.0
3.248,504.0
3.249,503.0
3.25,507.0
3.251,493.0
3.2520000000000002,494.0
3.253,504.0
3.254,505.0
3.255,510.0
3.2560000000000002,515.0
3.257,523.0
3.258,532.0
3.259,534.0
3.2600000000000002,528.0
3.261,511.0
3.262,501.0
3.263,497.0
3.2640000000000002,492.0
3.265,499.0
3.266,507.0
3.267,506.0
3.2680000000000002,503.0
3.269,494.0
3.27,494.0
3.271,506.0
3.2720000000000002,513.0
3.273,522.0
3.274,522.0
3.275,517.0
3.2760000000000002,520.0
3.277,505.0
3.278,488.0
3.279,504.0
3.2800000000000002,504.0
3.281,518.0
3.282,519.0
3.283,515.0
3.2840000000000003,518.0
3.285,508.0
3.286,514.0
3.287,517.0
3.2880000000000003,520.0
3.289,533.0
3.29,531.0
3.291,529.0
3.2920000000000003,515.0
3.293,510.0
3.294,485.0
3.295,453.0
3.2960000000000003,464.0
3.297,487.0
3.298,504.0
3.299,493.0
3.3000000000000003,501.0
3.301,502.0
3.302,510.0
3.303,520.0
3.3040000000000003,523.0
3.305,534.0
3.306,546.0
3.307,540.0
3.3080000000000003,523.0
3.309,519.0
3.31,516.0
3.311,505.0
3.3120000000000003,498.0
3.313,492.0
3.314,490.0
3.315,487.0
3.3160000000000003,495.0
3.317,503.0
3.318,511.0
3.319,511.0
3.3200000000000003,502.0
3.321,504.0
3.322,510.0
3.323,523.0
3.3240000000000003,514.0
3.325,512.0
3.326,515.0
3.327,511.0
3.3280000000000003,500.0
3.329,502.0
3.33,502.0
3.331,508.0
3.332,514.0
3.333,519.0
3.334,527.0
3.335,524.0
3.336,514.0
3.337,490.0
3.338,483.0
3.339,487.0
3.34,502.0
3.341,524.0
3.342,527.0
3.343,534.0
3.344,526.0
3.345,507.0
3.346,512.0
3.347,508.0
3.348,504.0
3.349,499.0
3.35,495.0
3.351,500.0
3.352,503.0
3.353,507.0
3.354,508.0
3.355,513.0
3.356,527.0
3.357,527.0
3.358,526.0
3.359,521.0
3.36,515.0
3.361,508.0
3.362,498.0
3.363,496.0
3.364,489.0
3.365,498.0
3.366,500.0
3.367,516.0
3.368,512.0
3.369,507.0
3.37,502.0
3.371,504.0
3.372,512.0
3.373,502.0
3.374,491.0
3.375,503.0
3.376,495.0
3.3770000000000002,504.0
3.378,518.0
3.379,532.0
3.38,526.0
3.3810000000000002,518.0
3.382,513.0
3.383,524.0
3.384,529.0
3.3850000000000002,538.0
3.386,518.0
3.387,516.0
3.388,516.0
3.3890000000000002,498.0
3.39,491.0
3.391,490.0
3.392,511.0
3.3930000000000002,520.0
3.394,518.0
3.395,512.0
3.396,509.0
3.3970000000000002,502.0
3.398,491.0
3.399,487.0
3.4,491.0
3.4010000000000002,496.0
3.402,502.0
3.403,499.0
3.404,501.0
3.4050000000000002,499.0
3.406,495.0
3.407,491.0
3.408,508.0
3.4090000000000003,525.0
3.41,521.0
3.411,516.0
3.412,521.0
3.4130000000000003,505.0
3.414,494.0
3.415,493.0
3.416,500.0
3.4170000000000003,502.0
3.418,516.0
3.419,522.0
3.42,520.0
3.4210000000000003,525.0
3.422,544.0
3.423,551.0
3.424,542.0
3.4250000000000003,526.0
3.426,504.0
3.427,496.0
3.428,498.0
3.4290000000000003,501.0
3.43,500.0
3.431,499.0
3.432,503.0
3.4330000000000003,510.0
3.434,494.0
3.435,479.0
3.436,465.0
3.4370000000000003,489.0
3.438,501.0
3.439,511.0
3.44,519.0
3.4410000000000003,531.0
3.442,538.0
3.443,526.0
3.444,515.0
3.4450000000000003,518.0
3.446,504.0
3.447,488.0
3.448,499.0
3.4490000000000003,500.0
3.45,495.0
3.451,500.0
3.452,511.0
3.4530000000000003,521.0
3.454,534.0
3.455,539.0
3.456,535.0
3.457,533.0
3.458,525.0
3.459,522.0
3.46,517.0
3.461,496.0
3.462,479.0
3.463,471.0
3.464,465.0
3.465,477.0
3.466,487.0
3.467,495.0
3.468,512.0
3.469,529.0
3.47,540.0
3.471,536.0
3.472,528.0
3.473,512.0
3.474,496.0
3.475,488.0
3.476,495.0
3.477,501.0
3.478,509.0
3.479,514.0
3.48,509.0
3.481,511.0
3.482,521.0
3.483,515.0
3.484,524.0
3.485,526.0
3.486,511.0
3.487,509.0
3.488,521.0
3.489,514.0
3.49,494.0
3.491,490.0
3.492,507.0
3.493,504.0
3.494,515.0
3.495,511.0
3.496,491.0
3.497,493.0
3.498,500.0
3.499,514.0
3.5,515.0
3.501,512.0
3.5020000000000002,502.0
3.503,506.0
3.504,522.0
3.505,526.0
3.5060000000000002,519.0
3.507,518.0
3.508,511.0
3.509,515.0
3.5100000000000002,516.0
3.511,512.0
3.512,502.0
3.513,489.0
3.5140000000000002,486.0
3.515,487.0
3.516,480.0
3.517,480.0
3.5180000000000002,484.0
3.519,499.0
3.52,513.0
3.521,524.0
3.5220000000000002,551.0
3.523,563.0
3.524,563.0
3.525,555.0
3.5260000000000002,549.0
3.527,530.0
3.528,512.0
3.529,491.0
3.5300000000000002,481.0
3.531,444.0
3.532,441.0
3.533,463.0
3.5340000000000003,476.0
3.535,499.0
3.536,516.0
3.537,534.0
3.5380000000000003,543.0
3.539,545.0
3.54,544.0
3.541,534.0
3.5420000000000003,526.0
3.543,510.0
3.544,498.0
3.545,508.0
3.5460000000000003,504.0
3.547,500.0
3.548,502.0
3.549,512.0
3.5500000000000003,505.0
3.551,492.0
3.552,487.0
3.553,494.0
3.5540000000000003,506.0
3.555,514.0
3.556,508.0
3.557,505.0
3.5580000000000003,516.0
3.559,517.0
3.56,523.0
3.561,512.0
3.5620000000000003,503.0
3.563,496.0
3.564,504.0
3.565,506.0
3.5660000000000003,504.0
3.567,509.0
3.568,518.0
3.569,525.0
3.5700000000000003,519.0
3.571,523.0
3.572,516.0
3.573,515.0
3.5740000000000003,505.0
3.575,502.0
3.576,500.0
3.577,508.0
3.5780000000000003,514.0
3.579,512.0
3.58,520.0
3.581,515.0
3.5820000000000003,517.0
3.583,515.0
3.584,514.0
3.585,493.0
3.586,470.0
3.587,457.0
3.588,443.0
3.589,447.0
3.59,484.0
3.591,497.0
3.592,529.0
3.593,530.0
3.594,515.0
3.595,511.0
3.596,511.0
3.597,538.0
3.598,565.0
3.599,574.0
3.6,570.0
3.601,543.0
3.602,527.0
3.603,513.0
3.604,519.0
3.605,524.0
3.606,513.0
3.607,507.0
3.608,517.0
3.609,503.0
3.61,485.0
3.611,483.0
3.612,494.0
3.613,487.0
3.614,483.0
3.615,502.0
3.616,506.0
3.617,504.0
3.618,505.0
3.619,506.0
3.62,511.0
3.621,515.0
3.622,512.0
3.623,509.0
3.624,503.0
3.625,491.0
3.626,482.0
3.6270000000000002,483.0
3.628,491.0
3.629,494.0
3.63,499.0
3.6310000000000002,510.0
3.632,515.0
3.633,508.0
3.634,495.0
3.6350000000000002,499.0
3.636,527.0
3.637,561.0
3.638,573.0
3.6390000000000002,566.0
3.64,543.0
3.641,530.0
3.642,511.0
3.6430000000000002,494.0
3.644,477.0
3.645,475.0
3.646,469.0
3.6470000000000002,469.0
3.648,480.0
3.649,485.0
3.65,511.0
3.6510000000000002,523.0
3.652,521.0
3.653,527.0
3.654,497.0
3.6550000000000002,467.0
3.656,496.0
3.657,537.0
3.658,561.0
3.6590000000000003,589.0
3.66,580.0
3.661,538.0
3.662,526.0
3.6630000000000003,499.0
3.664,472.0
3.665,454.0
3.666,454.0
3.6670000000000003,460.0
3.668,476.0
3.669,479.0
3.67,497.0
3.6710000000000003,523.0
3.672,541.0
3.673,540.0
3.674,534.0
3.6750000000000003,524.0
3.676,510.0
3.677,516.0
3.678,521.0
3.6790000000000003,506.0
3.68,496.0
3.681,497.0
3.682,481.0
3.6830000000000003,484.0
3.684,490.0
3.685,498.0
3.686,520.0
3.6870000000000003,534.0
3.688,544.0
3.689,536.0
3.69,524.0
3.6910000000000003,537.0
3.692,540.0
3.693,522.0
3.694,499.0
3.6950000000000003,488.0
3.696,479.0
3.697,478.0
3.698,479.0
3.6990000000000003,489.0
3.7,495.0
3.701,490.0
3.702,503.0
3.7030000000000003,520.0
3.704,553.0
3.705,544.0
3.706,516.0
3.7070000000000003,484.0
3.708,470.0
3.709,475.0
3.71,484.0
3.7110000000000003,515.0
3.712,546.0
3.713,554.0
3.714,570.0
3.715,572.0
3.716,548.0
3.717,532.0
3.718,505.0
3.719,476.0
3.72,475.0
3.721,483.0
3.722,492.0
3.723,497.0
3.724,505.0
3.725,511.0
3.726,516.0
3.727,491.0
3.728,481.0
3.729,490.0
3.73,498.0
3.731,503.0
3.732,500.0
3.733,500.0
3.734,511.0
3.735,524.0
3.736,529.0
3.737,536.0
3.738,528.0
3.739,504.0
3.74,489.0
3.741,479.0
3.742,484.0
3.743,484.0
3.744,501.0
3.745,509.0
3.746,504.0
3.747,487.0
3.748,487.0
3.749,507.0
3.75,514.0
3.751,513.0
3.7520000000000002,513.0
3.753,516.0
3.754,538.0
3.755,556.0
3.7560000000000002,559.0
3.757,550.0
3.758,531.0
3.759,522.0
3.7600000000000002,509.0
3.761,508.0
3.762,503.0
3.763,504.0
3.7640000000000002,504.0
3.765,505.0
3.766,498.0
3.767,494.0
3.7680000000000002,509.0
3.769,514.0
3.77,516.0
3.771,513.0
3.7720000000000002,499.0
3.773,503.0
3.774,509.0
3.775,514.0
3.7760000000000002,512.0
3.777,499.0
3.778,498.0
3.779,499.0
3.7800000000000002,504.0
3.781,498.0
3.782,484.0
3.783,491.0
3.7840000000000003,477.0
3.785,485.0
3.786,491.0
3.787,502.0
3.7880000000000003,509.0
3.789,515.0
3.79,526.0
3.791,534.0
3.7920000000000003,546.0
3.793,547.0
3.794,542.0
3.795,536.0
3.7960000000000003,516.0
3.797,515.0
3.798,523.0
3.799,535.0
3.8000000000000003,525.0
3.801,511.0
3.802,498.0
3.803,496.0
3.8040000000000003,504.0
3.805,497.0
3.806,491.0
3.807,505.0
3.8080000000000003,493.0
3.809,479.0
3.81,459.0
3.811,424.0
3.8120000000000003,408.0
3.813,416.0
3.814,446.0
3.815,484.0
3.8160000000000003,524.0
3.817,554.0
3.818,578.0
3.819,602.0
3.8200000000000003,612.0
3.821,615.0
3.822,603.0
3.823,557.0
3.8240000000000003,551.0
3.825,551.0
3.826,536.0
3.827,515.0
3.8280000000000003,476.0
3.829,465.0
3.83,460.0
3.831,454.0
3.8320000000000003,473.0
3.833,485.0
3.834,488.0
3.835,488.0
3.8360000000000003,488.0
3.837,497.0
3.838,507.0
3.839,507.0
3.84,510.0
3.841,506.0
3.842,505.0
3.843,499.0
3.844,509.0
3.845,507.0
3.846,505.0
3.847,506.0
3.848,502.0
3.849,506.0
3.85,513.0
3.851,504.0
3.852,497.0
3.853,502.0
3.854,519.0
3.855,530.0
3.856,534.0
3.857,530.0
3.858,526.0
3.859,507.0
3.86,489.0
3.861,492.0
3.862,492.0
3.863,496.0
3.864,513.0
3.865,528.0
3.866,513.0
3.867,503.0
3.868,498.0
3.869,488.0
3.87,497.0
3.871,519.0
3.872,536.0
3.873,545.0
3.874,566.0
3.875,544.0
3.876,529.0
3.8770000000000002,517.0
3.878,497.0
3.879,483.0
3.88,399.0
3.8810000000000002,376.0
3.882,430.0
3.883,485.0
3.884,533.0
3.8850000000000002,553.0
3.886,560.0
3.887,569.0
3.888,567.0
3.8890000000000002,571.0
3.89,557.0
3.891,534.0
3.892,533.0
3.8930000000000002,527.0
3.894,500.0
3.895,474.0
3.896,475.0
3.8970000000000002,482.0
3.898,484.0
3.899,496.0
3.9,511.0
3.9010000000000002,519.0
3.902,504.0
3.903,483.0
3.904,507.0
3.9050000000000002,512.0
3.906,515.0
3.907,518.0
3.908,521.0
3.9090000000000003,519.0
3.91,519.0
3.911,511.0
3.912,503.0
3.9130000000000003,497.0
3.914,496.0
3.915,494.0
3.916,494.0
3.9170000000000003,502.0
3.918,510.0
3.919,516.0
3.92,515.0
3.9210000000000003,510.0
3.922,512.0
3.923,518.0
3.924,522.0
3.9250000000000003,510.0
3.926,505.0
3.927,498.0
3.928,495.0
3.9290000000000003,498.0
3.93,500.0
3.931,508.0
3.932,512.0
3.9330000000000003,516.0
3.934,525.0
3.935,522.0
3.936,520.0
3.9370000000000003,498.0
3.938,490.0
3.939,509.0
3.94,508.0
3.9410000000000003,503.0
3.942,519.0
3.943,526.0
3.944,535.0
3.9450000000000003,518.0
3.946,512.0
3.947,496.0
3.948,474.0
3.9490000000000003,481.0
3.95,476.0
3.951,502.0
3.952,500.0
3.9530000000000003,500.0
3.954,505.0
3.955,499.0
3.956,503.0
3.9570000000000003,516.0
3.958,518.0
3.959,513.0
3.96,525.0
3.9610000000000003,548.0
3.962,538.0
3.963,535.0
3.964,524.0
3.9650000000000003,502.0
3.966,500.0
3.967,502.0
3.968,499.0
3.969,500.0
3.97,506.0
3.971,516.0
3.972,519.0
3.973,515.0
3.974,517.0
3.975,519.0
3.976,510.0
3.977,503.0
3.978,498.0
3.979,490.0
3.98,492.0
3.981,467.0
3.982,472.0
3.983,487.0
3.984,502.0
3.985,506.0
3.986,524.0
3.987,536.0
3.988,545.0
3.989,550.0
3.99,541.0
3.991,527.0
3.992,510.0
3.993,496.0
3.994,512.0
3.995,504.0
3.996,509.0
3.997,507.0
3.998,502.0
3.999,497.0
4.0,501.0
4.001,500.0
4.002,504.0
4.003,510.0
4.0040000000000004,517.0
4.005,519.0
4.006,523.0
4.007,518.0
4.008,513.0
4.009,504.0
4.01,500.0
4.011,502.0
4.0120000000000005,502.0
4.013,499.0
4.014,492.0
4.015,493.0
4.016,502.0
4.017,504.0
4.018,510.0
4.019,513.0
4.0200000000000005,519.0
4.021,520.0
4.022,514.0
4.023,507.0
4.024,511.0
4.025,513.0
4.026,516.0
4.027,508.0
4.0280000000000005,498.0
4.029,502.0
4.03,496.0
4.031,493.0
4.032,499.0
4.033,502.0
4.034,506.0
4.035,509.0
4.0360000000000005,515.0
4.037,521.0
4.038,526.0
4.039,524.0
4.04,519.0
4.041,518.0
4.042,513.0
4.043,508.0
4.0440000000000005,508.0
4.045,504.0
4.046,499.0
4.047,499.0
4.048,499.0
4.049,503.0
4.05,506.0
4.051,511.0
4.0520000000000005,521.0
4.053,527.0
4.054,519.0
4.055,492.0
4.056,511.0
4.057,519.0
4.058,513.0
4.059,502.0
4.0600000000000005,510.0
4.061,510.0
4.062,502.0
4.063,500.0
4.064,504.0
4.065,508.0
4.066,511.0
4.067,505.0
4.0680000000000005,499.0
4.069,502.0
4.07,508.0
4.071,517.0
4.072,524.0
4.073,524.0
4.074,519.0
4.075,512.0
4.0760000000000005,510.0
4.077,507.0
4.078,496.0
4.079,490.0
4.08,491.0
4.081,500.0
4.082,507.0
4.083,513.0
4.0840000000000005,521.0
4.085,524.0
4.086,519.0
4.087,516.0
4.088,519.0
4.089,518.0
4.09,510.0
4.091,508.0
4.0920000000000005,507.0
4.093,504.0
4.094,499.0
4.095,493.0
4.096,488.0
4.097,495.0
4.098,504.0
4.099,505.0
4.1,508.0
4.101,510.0
4.102,510.0
4.103,518.0
4.104,524.0
4.105,527.0
4.106,530.0
4.107,523.0
4.108,516.0
4.109,487.0
4.11,483.0
4.111,492.0
4.112,494.0
4.113,492.0
4.114,505.0
4.115,510.0
4.116,516.0
4.117,524.0
4.118,528.0
4.119,519.0
4.12,521.0
4.121,519.0
4.122,513.0
4.123,516.0
4.124,508.0
4.125,502.0
4.126,502.0
4.127,499.0
4.128,500.0
4.1290000000000004,506.0
4.13,498.0
4.131,507.0
4.132,506.0
4.133,495.0
4.134,499.0
4.135,503.0
4.136,509.0
4.1370000000000005,509.0
4.138,519.0
4.139,529.0
4.14,528.0
4.141,519.0
4.142,506.0
4.143,507.0
4.144,507.0
4.1450000000000005,500.0
4.146,497.0
4.147,500.0
4.148,502.0
4.149,506.0
4.15,512.0
4.151,513.0
4.152,512.0
4.1530000000000005,513.0
4.154,513.0
4.155,514.0
4.156,513.0
4.157,507.0
4.158,513.0
4.159,515.0
4.16,512.0
4.1610000000000005,512.0
4.162,507.0
4.163,502.0
4.164,503.0
4.165,511.0
4.166,511.0
4.167,512.0
4.168,513.0
4.1690000000000005,511.0
4.17,519.0
4.171,516.0
4.172,514.0
4.173,507.0
4.174,503.0
4.175,511.0
4.176,511.0
4.1770000000000005,510.0
4.178,504.0
4.179,499.0
4.18,503.0
4.181,505.0
4.182,503.0
4.183,502.0
4.184,508.0
4.1850000000000005,510.0
4.186,515.0
4.187,522.0
4.188,519.0
4.189,521.0
4.19,521.0
4.191,518.0
4.192,504.0
4.1930000000000005,495.0
4.194,501.0
4.195,509.0
4.196,507.0
4.197,502.0
4.198,503.0
4.199,489.0
4.2,500.0
4.2010000000000005,508.0
4.202,506.0
4.203,509.0
4.204,514.0
4.205,518.0
4.206,518.0
4.207,519.0
4.208,517.0
4.2090000000000005,514.0
4.21,511.0
4.211,508.0
4.212,502.0
4.213,497.0
4.214,501.0
4.215,504.0
4.216,507.0
4.2170000000000005,509.0
4.218,514.0
4.219,515.0
4.22,519.0
4.221,517.0
4.222,510.0
4.223,516.0
4.224,514.0
4.225,512.0
4.226,512.0
4.227,508.0
4.228,503.0
4.229,491.0
4.23,491.0
4.231,500.0
4.232,507.0
4.233,509.0
4.234,509.0
4.235,504.0
4.236,506.0
4.237,515.0
4.238,518.0
4.239,519.0
4.24,514.0
4.241,512.0
4.242,513.0
4.243,513.0
4.244,511.0
4.245,504.0
4.246,498.0
4.247,499.0
4.248,502.0
4.249,498.0
4.25,505.0
4.251,506.0
4.252,503.0
4.253,521.0
4.2540000000000004,526.0
4.255,523.0
4.256,511.0
4.257,509.0
4.258,514.0
4.259,511.0
4.26,509.0
4.261,506.0
4.2620000000000005,500.0
4.263,495.0
4.264,494.0
4.265,489.0
4.266,502.0
4.267,506.0
4.268,511.0
4.269,515.0
4.2700000000000005,522.0
4.271,521.0
4.272,513.0
4.273,514.0
4.274,519.0
4.275,524.0
4.276,520.0
4.277,514.0
4.2780000000000005,497.0
4.279,496.0
4.28,495.0
4.281,488.0
4.282,495.0
4.283,504.0
4.284,508.0
4.285,511.0
4.2860000000000005,516.0
4.287,524.0
4.288,522.0
4.289,522.0
4.29,521.0
4.291,519.0
4.292,513.0
4.293,509.0
4.2940000000000005,504.0
4.295,496.0
4.296,494.0
4.297,493.0
4.298,494.0
4.299,501.0
4.3,503.0
4.301,505.0
4.3020000000000005,515.0
4.303,524.0
4.304,530.0
4.305,534.0
4.306,531.0
4.307,524.0
4.308,522.0
4.309,511.0
4.3100000000000005,509.0
4.311,509.0
4.312,496.0
4.313,491.0
4.314,494.0
4.315,496.0
4.316,501.0
4.317,507.0
4.3180000000000005,510.0
4.319,508.0
4.32,507.0
4.321,507.0
4.322,516.0
4.323,518.0
4.324,516.0
4.325,509.0
4.3260000000000005,507.0
4.327,504.0
4.328,509.0
4.329,507.0
4.33,504.0
4.331,496.0
4.332,499.0
4.333,505.0
4.3340000000000005,506.0
4.335,507.0
4.336,515.0
4.337,519.0
4.338,522.0
4.339,525.0
4.34,519.0
4.341,513.0
4.3420000000000005,514.0
4.343,506.0
4.344,505.0
4.345,504.0
4.346,501.0
4.347,504.0
4.348,504.0
4.349,507.0
4.3500000000000005,506.0
4.351,508.0
4.352,508.0
4.353,516.0
4.354,520.0
4.355,515.0
4.356,515.0
4.357,525.0
4.358,524.0
4.359,518.0
4.36,510.0
4.361,493.0
4.362,496.0
4.363,499.0
4.364,499.0
4.365,503.0
4.366,501.0
4.367,495.0
4.368,506.0
4.369,510.0
4.37,516.0
4.371,516.0
4.372,511.0
4.373,514.0
4.374,518.0
4.375,520.0
4.376,520.0
4.377,511.0
4.378,507.0
4.3790000000000004,503.0
4.38,505.0
4.381,503.0
4.382,503.0
4.383,501.0
4.384,504.0
4.385,499.0
4.386,497.0
4.3870000000000005,506.0
4.388,505.0
4.389,506.0
4.39,512.0
4.391,518.0
4.392,521.0
4.393,520.0
4.394,531.0
4.3950000000000005,536.0
4.396,533.0
4.397,527.0
4.398,529.0
4.399,513.0
4.4,511.0
4.401,510.0
4.402,501.0
4.4030000000000005,495.0
4.404,488.0
4.405,481.0
4.406,477.0
4.407,492.0
4.408,493.0
4.409,492.0
4.41,510.0
4.4110000000000005,512.0
4.412,510.0
4.413,508.0
4.414,507.0
4.415,511.0
4.416,512.0
4.417,513.0
4.418,512.0
4.4190000000000005,518.0
4.42,522.0
4.421,531.0
4.422,529.0
4.423,523.0
4.424,508.0
4.425,490.0
4.426,494.0
4.4270000000000005,499.0
4.428,492.0
4.429,495.0
4.43,495.0
4.431,499.0
4.432,500.0
4.433,497.0
4.434,502.0
4.4350000000000005,506.0
4.436,513.0
4.437,516.0
4.438,518.0
4.439,532.0
4.44,538.0
4.441,528.0
4.442,520.0
4.4430000000000005,509.0
4.444,510.0
4.445,500.0
4.446,499.0
4.447,504.0
4.448,505.0
4.449,507.0
4.45,504.0
4.4510000000000005,505.0
4.452,505.0
4.453,510.0
4.454,514.0
4.455,516.0
4.456,519.0
4.457,518.0
4.458,512.0
4.4590000000000005,504.0
4.46,507.0
4.461,507.0
4.462,505.0
4.463,503.0
4.464,506.0
4.465,504.0
4.466,498.0
4.4670000000000005,499.0
4.468,504.0
4.469,514.0
4.47,522.0
4.471,524.0
4.472,519.0
4.473,519.0
4.474,515.0
4.4750000000000005,510.0
4.476,515.0
4.477,516.0
4.478,511.0
4.479,491.0
4.48,473.0
4.481,481.0
4.482,499.0
4.483,510.0
4.484,515.0
4.485,515.0
4.486,519.0
4.487,526.0
4.488,525.0
4.489,523.0
4.49,514.0
4.491,504.0
4.492,509.0
4.493,508.0
4.494,508.0
4.495,499.0
4.496,486.0
4.497,496.0
4.498,502.0
4.499,505.0
4.5,508.0
4.501,508.0
4.502,513.0
4.503,516.0
4.5040000000000004,521.0
4.505,524.0
4.506,523.0
4.507,516.0
4.508,510.0
4.509,513.0
4.51,512.0
4.511,506.0
4.5120000000000005,497.0
4.513,486.0
4.514,492.0
4.515,495.0
4.516,474.0
4.517,480.0
4.518,492.0
4.519,508.0
4.5200000000000005,517.0
4.521,528.0
4.522,535.0
4.523,540.0
4.524,533.0
4.525,530.0
4.526,527.0
4.527,533.0
4.5280000000000005,524.0
4.529,525.0
4.53,520.0
4.531,504.0
4.532,494.0
4.533,487.0
4.534,494.0
4.535,495.0
4.5360000000000005,502.0
4.537,502.0
4.538,511.0
4.539,509.0
4.54,496.0
4.541,504.0
4.542,508.0
4.543,508.0
4.5440000000000005,507.0
4.545,505.0
4.546,504.0
4.547,506.0
4.548,503.0
4.549,505.0
4.55,512.0
4.551,516.0
4.5520000000000005,516.0
4.553,514.0
4.554,515.0
4.555,506.0
4.556,500.0
4.557,506.0
4.558,520.0
4.559,517.0
4.5600000000000005,508.0
4.561,512.0
4.562,498.0
4.563,498.0
4.564,503.0
4.565,507.0
4.566,508.0
4.567,511.0
4.5680000000000005,512.0
4.569,516.0
4.57,517.0
4.571,522.0
4.572,517.0
4.573,510.0
4.574,511.0
4.575,497.0
4.5760000000000005,500.0
4.577,508.0
4.578,506.0
4.579,504.0
4.58,507.0
4.581,509.0
4.582,511.0
4.583,509.0
4.5840000000000005,504.0
4.585,504.0
4.586,516.0
4.587,518.0
4.588,520.0
4.589,513.0
4.59,512.0
4.591,515.0
4.5920000000000005,509.0
4.593,504.0
4.594,512.0
4.595,514.0
4.596,514.0
4.597,498.0
4.598,496.0
4.599,494.0
4.6000000000000005,488.0
4.601,500.0
4.602,509.0
4.603,511.0
4.604,515.0
4.605,520.0
4.606,520.0
4.607,516.0
4.6080000000000005,519.0
4.609,519.0
4.61,511.0
4.611,516.0
4.612,495.0
4.613,492.0
4.614,496.0
4.615,501.0
4.616,505.0
4.617,504.0
4.618,512.0
4.619,513.0
4.62,515.0
4.621,509.0
4.622,518.0
4.623,515.0
4.624,513.0
4.625,511.0
4.626,509.0
4.627,509.0
4.628,504.0
4.6290000000000004,501.0
4.63,504.0
4.631,508.0
4.632,508.0
4.633,507.0
4.634,508.0
4.635,510.0
4.636,515.0
4.6370000000000005,521.0
4.638,516.0
4.639,503.0
4.64,488.0
4.641,502.0
4.642,514.0
4.643,518.0
4.644,511.0
4.6450000000000005,507.0
4.646,507.0
4.647,515.0
4.648,525.0
4.649,511.0
4.65,507.0
4.651,502.0
4.652,500.0
4.6530000000000005,505.0
4.654,505.0
4.655,513.0
4.656,513.0
4.657,518.0
4.658,519.0
4.659,514.0
4.66,512.0
4.6610000000000005,503.0
4.662,496.0
4.663,500.0
4.664,498.0
4.665,487.0
4.666,487.0
4.667,509.0
4.668,518.0
4.6690000000000005,519.0
4.67,511.0
4.671,497.0
4.672,493.0
4.673,504.0
4.674,514.0
4.675,523.0
4.676,524.0
4.6770000000000005,533.0
4.678,527.0
4.679,516.0
4.68,512.0
4.681,504.0
4.682,520.0
4.683,529.0
4.684,533.0
4.6850000000000005,525.0
4.686,514.0
4.687,507.0
4.688,489.0
4.689,484.0
4.69,500.0
4.691,513.0
4.692,515.0
4.6930000000000005,501.0
4.694,493.0
4.695,480.0
4.696,484.0
4.697,498.0
4.698,506.0
4.699,507.0
4.7,505.0
4.7010000000000005,504.0
4.702,511.0
4.703,512.0
4.704,512.0
4.705,513.0
4.706,519.0
4.707,512.0
4.708,517.0
4.7090000000000005,521.0
4.71,518.0
4.711,518.0
4.712,504.0
4.713,497.0
4.714,497.0
4.715,508.0
4.716,512.0
4.7170000000000005,511.0
4.718,510.0
4.719,516.0
4.72,510.0
4.721,509.0
4.722,509.0
4.723,510.0
4.724,513.0
4.7250000000000005,511.0
4.726,506.0
4.727,510.0
4.728,515.0
4.729,515.0
4.73,509.0
4.731,507.0
4.732,513.0
4.7330000000000005,511.0
4.734,506.0
4.735,499.0
4.736,502.0
4.737,514.0
4.738,508.0
4.739,509.0
4.74,506.0
4.741,513.0
4.742,523.0
4.743,517.0
4.744,512.0
4.745,497.0
4.746,476.0
4.747,483.0
4.748,495.0
4.749,501.0
4.75,525.0
4.751,548.0
4.752,538.0
4.753,518.0
4.7540000000000004,500.0
4.755,499.0
4.756,499.0
4.757,508.0
4.758,511.0
4.759,509.0
4.76,511.0
4.761,513.0
4.7620000000000005,511.0
4.763,507.0
4.764,497.0
4.765,494.0
4.766,494.0
4.767,504.0
4.768,508.0
4.769,510.0
4.7700000000000005,519.0
4.771,536.0
4.772,527.0
4.773,515.0
4.774,508.0
4.775,502.0
4.776,494.0
4.777,491.0
4.7780000000000005,497.0
4.779,497.0
4.78,500.0
4.781,501.0
4.782,518.0
4.783,523.0
4.784,511.0
4.785,516.0
4.7860000000000005,541.0
4.787,536.0
4.788,523.0
4.789,501.0
4.79,500.0
4.791,499.0
4.792,512.0
4.793,529.0
4.7940000000000005,507.0
4.795,494.0
4.796,505.0
4.797,513.0
4.798,510.0
4.799,500.0
4.8,495.0
4.801,495.0
4.8020000000000005,504.0
4.803,511.0
4.804,510.0
4.805,511.0
4.806,521.0
4.807,527.0
4.808,521.0
4.809,504.0
4.8100000000000005,481.0
4.811,485.0
4.812,487.0
4.813,493.0
4.814,505.0
4.815,525.0
4.816,522.0
4.817,495.0
4.8180000000000005,486.0
4.819,510.0
4.82,553.0
4.821,550.0
4.822,536.0
4.823,503.0
4.824,495.0
4.825,489.0
4.8260000000000005,502.0
4.827,519.0
4.828,527.0
4.829,524.0
4.83,512.0
4.831,500.0
4.832,499.0
4.833,493.0
4.8340000000000005,496.0
4.835,498.0
4.836,510.0
4.837,524.0
4.838,525.0
4.839,520.0
4.84,508.0
4.841,504.0
4.8420000000000005,505.0
4.843,499.0
4.844,508.0
4.845,505.0
4.846,508.0
4.847,510.0
4.848,511.0
4.849,502.0
4.8500000000000005,499.0
4.851,489.0
4.852,496.0
4.853,507.0
4.854,526.0
4.855,529.0
4.856,517.0
4.857,508.0
4.8580000000000005,507.0
4.859,508.0
4.86,513.0
4.861,513.0
4.862,514.0
4.863,510.0
4.864,502.0
4.865,501.0
4.866,505.0
4.867,509.0
4.868,509.0
4.869,510.0
4.87,507.0
4.871,506.0
4.872,513.0
4.873,513.0
4.874,511.0
4.875,514.0
4.876,514.0
4.877,497.0
4.878,499.0
4.8790000000000004,505.0
4.88,506.0
4.881,512.0
4.882,523.0
4.883,513.0
4.884,503.0
4.885,499.0
4.886,488.0
4.8870000000000005,484.0
4.888,498.0
4.889,518.0
4.89,557.0
4.891,545.0
4.892,525.0
4.893,522.0
4.894,523.0
4.8950000000000005,494.0
4.896,472.0
4.897,469.0
4.898,488.0
4.899,500.0
4.9,523.0
4.901,542.0
4.902,526.0
4.9030000000000005,513.0
4.904,519.0
4.905,513.0
4.906,505.0
4.907,507.0
4.908,507.0
4.909,508.0
4.91,505.0
4.9110000000000005,499.0
4.912,498.0
4.913,497.0
4.914,499.0
4.915,502.0
4.916,505.0
4.917,515.0
4.918,520.0
4.9190000000000005,516.0
4.92,510.0
4.921,517.0
4.922,509.0
4.923,511.0
4.924,515.0
4.925,518.0
4.926,512.0
4.9270000000000005,505.0
4.928,505.0
4.929,505.0
4.93,505.0
4.931,505.0
4.932,500.0
4.933,502.0
4.934,515.0
4.9350000000000005,523.0
4.936,510.0
4.937,500.0
4.938,497.0
4.939,506.0
4.94,517.0
4.941,515.0
4.942,510.0
4.9430000000000005,500.0
4.944,500.0
4.945,508.0
4.946,504.0
4.947,521.0
4.948,539.0
4.949,519.0
4.95,508.0
4.9510000000000005,509.0
4.952,512.0
4.953,505.0
4.954,502.0
4.955,505.0
4.956,512.0
4.957,497.0
4.958,492.0
4.9590000000000005,491.0
4.96,506.0
4.961,512.0
4.962,522.0
4.963,518.0
4.964,510.0
4.965,512.0
4.966,519.0
4.9670000000000005,513.0
4.968,505.0
4.969,495.0
4.97,495.0
4.971,492.0
4.972,499.0
4.973,508.0
4.974,534.0
4.9750000000000005,539.0
4.976,523.0
4.977,532.0
4.978,517.0
4.979,496.0
4.98,497.0
4.981,503.0
4.982,504.0
4.9830000000000005,499.0
4.984,501.0
4.985,504.0
4.986,509.0
4.987,501.0
4.988,503.0
4.989,511.0
4.99,509.0
4.9910000000000005,498.0
4.992,518.0
4.993,527.0
4.994,527.0
4.995,523.0
4.996,513.0
4.997,509.0
4.998,503.0
4.999,504.0
5.0,499.0
5.001,492.0
5.002,501.0
5.003,504.0
5.0040000000000004,516.0
5.005,528.0
5.006,513.0
5.007,515.0
5.008,504.0
5.009,498.0
5.01,505.0
5.011,508.0
5.0120000000000005,519.0
5.013,524.0
5.014,517.0
5.015,496.0
5.016,500.0
5.017,507.0
5.018,502.0
5.019,501.0
5.0200000000000005,502.0
5.021,510.0
5.022,507.0
5.023,502.0
5.024,495.0
5.025,496.0
5.026,508.0
5.027,525.0
5.0280000000000005,540.0
5.029,545.0
5.03,536.0
5.031,521.0
5.032,508.0
5.033,482.0
5.034,476.0
5.035,491.0
5.0360000000000005,504.0
5.037,516.0
5.038,510.0
5.039,513.0
5.04,513.0
5.041,509.0
5.042,504.0
5.043,502.0
5.0440000000000005,503.0
5.045,512.0
5.046,510.0
5.047,515.0
5.048,529.0
5.049,525.0
5.05,510.0
5.051,500.0
5.0520000000000005,497.0
5.053,499.0
5.054,507.0
5.055,511.0
5.056,499.0
5.057,494.0
5.058,500.0
5.059,506.0
5.0600000000000005,525.0
5.061,521.0
5.062,504.0
5.063,503.0
5.064,520.0
5.065,512.0
5.066,502.0
5.067,513.0
5.0680000000000005,522.0
5.069,511.0
5.07,504.0
5.071,503.0
5.072,506.0
5.073,510.0
5.074,507.0
5.075,495.0
5.0760000000000005,494.0
5.077,515.0
5.078,522.0
5.079,538.0
5.08,531.0
5.081,502.0
5.082,502.0
5.083,505.0
5.0840000000000005,500.0
5.085,505.0
5.086,508.0
5.087,508.0
5.088,504.0
5.089,502.0
5.09,505.0
5.091,510.0
5.0920000000000005,512.0
5.093,511.0
5.094,514.0
5.095,514.0
5.096,515.0
5.097,512.0
5.098,503.0
5.099,506.0
5.1000000000000005,505.0
5.101,506.0
5.102,505.0
5.103,508.0
5.104,507.0
5.105,505.0
5.106,504.0
5.107,488.0
5.1080000000000005,485.0
5.109,510.0
5.11,532.0
5.111,528.0
5.112,523.0
5.113,533.0
5.114,504.0
5.115,494.0
5.1160000000000005,513.0
5.117,513.0
5.118,522.0
5.119,513.0
5.12,503.0
5.121,499.0
5.122,508.0
5.123,509.0
5.124,505.0
5.125,506.0
5.126,513.0
5.127,521.0
5.128,526.0
5.1290000000000004,508.0
5.13,494.0
5.131,496.0
5.132,509.0
5.133,519.0
5.134,502.0
5.135,496.0
5.136,500.0
5.1370000000000005,496.0
5.138,511.0
5.139,521.0
5.14,515.0
5.141,510.0
5.142,515.0
5.143,521.0
5.144,528.0
5.1450000000000005,521.0
5.146,501.0
5.147,487.0
5.148,491.0
5.149,499.0
5.15,489.0
5.151,513.0
5.152,489.0
5.1530000000000005,484.0
5.154,510.0
5.155,519.0
5.156,545.0
5.157,559.0
5.158,530.0
5.159,512.0
5.16,508.0
5.1610000000000005,508.0
5.162,510.0
5.163,506.0
5.164,506.0
5.165,507.0
5.166,506.0
5.167,501.0
5.168,494.0
5.1690000000000005,492.0
5.17,494.0
5.171,501.0
5.172,502.0
5.173,515.0
5.174,511.0
5.175,513.0
5.176,527.0
5.1770000000000005,524.0
5.178,514.0
5.179,520.0
5.18,514.0
5.181,505.0
5.182,510.0
5.183,506.0
5.184,492.0
5.1850000000000005,495.0
5.186,500.0
5.187,509.0
5.188,517.0
5.189,512.0
5.19,510.0
5.191,503.0
5.192,496.0
5.1930000000000005,500.0
5.194,506.0
5.195,529.0
5.196,528.0
5.197,500.0
5.198,487.0
5.199,498.0
5.2,519.0
5.2010000000000005,516.0
5.202,517.0
5.203,521.0
5.204,511.0
5.205,507.0
5.206,510.0
5.207,509.0
5.208,510.0
5.2090000000000005,515.0
5.21,518.0
5.211,499.0
5.212,473.0
5.213,471.0
5.214,512.0
5.215,521.0
5.216,534.0
5.2170000000000005,526.0
5.218,516.0
5.219,520.0
5.22,507.0
5.221,485.0
5.222,493.0
5.223,499.0
5.224,507.0
5.2250000000000005,515.0
5.226,534.0
5.227,516.0
5.228,514.0
5.229,523.0
5.23,509.0
5.231,504.0
5.232,508.0
5.2330000000000005,509.0
5.234,506.0
5.235,503.0
5.236,499.0
5.237,501.0
5.238,508.0
5.239,508.0
5.24,512.0
5.2410000000000005,511.0
5.242,510.0
5.243,514.0
5.244,515.0
5.245,508.0
5.246,507.0
5.247,507.0
5.248,505.0
5.249,515.0
5.25,506.0
5.251,502.0
5.252,521.0
5.253,509.0
5.2540000000000004,502.0
5.255,506.0
5.256,508.0
5.257,508.0
5.258,507.0
5.259,511.0
5.26,511.0
5.261,512.0
5.2620000000000005,512.0
5.263,507.0
5.264,510.0
5.265,509.0
5.266,508.0
5.267,508.0
5.268,506.0
5.269,503.0
5.2700000000000005,503.0
5.271,501.0
5.272,495.0
5.273,494.0
5.274,492.0
5.275,512.0
5.276,531.0
5.277,546.0
5.2780000000000005,549.0
5.279,518.0
5.28,503.0
5.281,492.0
5.282,499.0
5.283,513.0
5.284,507.0
5.285,484.0
5.2860000000000005,491.0
5.287,514.0
5.288,516.0
5.289,516.0
5.29,511.0
5.291,519.0
5.292,515.0
5.293,513.0
5.2940000000000005,512.0
5.295,507.0
5.296,504.0
5.297,509.0
5.298,509.0
5.299,506.0
5.3,504.0
5.301,504.0
5.3020000000000005,500.0
5.303,501.0
5.304,505.0
5.305,508.0
5.306,514.0
5.307,515.0
5.308,510.0
5.309,507.0
5.3100000000000005,515.0
5.311,524.0
5.312,524.0
5.313,513.0
5.314,504.0
5.315,506.0
5.316,502.0
5.317,498.0
5.3180000000000005,496.0
5.319,497.0
5.32,504.0
5.321,503.0
5.322,503.0
5.323,505.0
5.324,508.0
5.325,512.0
5.3260000000000005,514.0
5.327,519.0
5.328,519.0
5.329,517.0
5.33,513.0
5.331,504.0
5.332,499.0
5.333,500.0
5.3340000000000005,499.0
5.335,498.0
5.336,499.0
5.337,529.0
5.338,540.0
5.339,523.0
5.34,512.0
5.341,511.0
5.3420000000000005,515.0
5.343,514.0
5.344,510.0
5.345,509.0
5.346,509.0
5.347,504.0
5.348,499.0
5.349,503.0
5.3500000000000005,505.0
5.351,504.0
5.352,505.0
5.353,505.0
5.354,504.0
5.355,507.0
5.356,509.0
5.357,513.0
5.3580000000000005,512.0
5.359,514.0
5.36,506.0
5.361,511.0
5.362,510.0
5.363,507.0
5.364,512.0
5.365,511.0
5.3660000000000005,503.0
5.367,499.0
5.368,512.0
5.369,501.0
5.37,508.0
5.371,516.0
5.372,515.0
5.373,511.0
5.3740000000000006,508.0
5.375,510.0
5.376,513.0
5.377,515.0
5.378,512.0
5.3790000000000004,509.0
5.38,507.0
5.381,507.0
5.382,508.0
5.383,505.0
5.384,504.0
5.385,503.0
5.386,504.0
5.3870000000000005,506.0
5.388,509.0
5.389,511.0
5.39,511.0
5.391,514.0
5.392,514.0
5.393,515.0
5.394,516.0
5.3950000000000005,508.0
5.396,509.0
5.397,506.0
5.398,506.0
5.399,507.0
5.4,508.0
5.401,509.0
5.402,511.0
5.4030000000000005,508.0
5.404,504.0
5.405,506.0
5.406,513.0
5.407,517.0
5.408,509.0
5.409,501.0
5.41,492.0
5.4110000000000005,490.0
5.412,518.0
5.413,539.0
5.414,531.0
5.415,519.0
5.416,504.0
5.417,499.0
5.418,500.0
5.4190000000000005,496.0
5.42,499.0
5.421,503.0
5.422,504.0
5.423,504.0
5.424,510.0
5.425,511.0
5.426,515.0
5.4270000000000005,515.0
5.428,516.0
5.429,519.0
5.43,520.0
5.431,519.0
5.432,516.0
5.433,510.0
5.434,501.0
5.4350000000000005,498.0
5.436,493.0
5.437,492.0
5.438,513.0
5.439,508.0
5.44,510.0
5.441,533.0
5.442,527.0
5.4430000000000005,512.0
5.444,506.0
5.445,503.0
5.446,497.0
5.447,500.0
5.448,502.0
5.449,504.0
5.45,505.0
5.4510000000000005,504.0
5.452,509.0
5.453,506.0
5.454,508.0
5.455,511.0
5.456,514.0
5.457,517.0
5.458,516.0
5.4590000000000005,518.0
5.46,517.0
5.461,518.0
5.462,513.0
5.463,511.0
5.464,508.0
5.465,505.0
5.466,505.0
5.4670000000000005,509.0
5.468,504.0
5.469,494.0
5.47,485.0
5.471,491.0
5.472,499.0
5.473,501.0
5.474,508.0
5.4750000000000005,508.0
5.476,510.0
5.477,517.0
5.478,519.0
5.479,520.0
5.48,524.0
5.481,525.0
5.482,528.0
5.4830000000000005,527.0
5.484,526.0
5.485,526.0
5.486,521.0
5.487,512.0
5.488,504.0
5.489,492.0
5.49,501.0
5.4910000000000005,508.0
5.492,508.0
5.493,511.0
5.494,504.0
5.495,505.0
5.496,505.0
5.497,502.0
5.498,498.0
5.4990000000000006,495.0
5.5,497.0
5.501,499.0
5.502,503.0
5.503,500.0
5.5040000000000004,502.0
5.505,504.0
5.506,507.0
5.507,504.0
5.508,502.0
5.509,502.0
5.51,509.0
5.511,512.0
5.5120000000000005,512.0
5.513,519.0
5.514,520.0
5.515,520.0
5.516,517.0
5.517,514.0
5.518,512.0
5.519,511.0
5.5200000000000005,514.0
5.521,512.0
5.522,514.0
5.523,515.0
5.524,508.0
5.525,510.0
5.526,504.0
5.527,503.0
5.5280000000000005,501.0
5.529,487.0
5.53,467.0
5.531,468.0
5.532,475.0
5.533,488.0
5.534,489.0
5.535,499.0
5.5360000000000005,516.0
5.537,531.0
5.538,541.0
5.539,548.0
5.54,561.0
5.541,568.0
5.542,569.0
5.543,563.0
5.5440000000000005,556.0
5.545,536.0
5.546,520.0
5.547,506.0
5.548,490.0
5.549,484.0
5.55,474.0
5.551,468.0
5.5520000000000005,462.0
5.553,476.0
5.554,464.0
5.555,457.0
5.556,467.0
5.557,487.0
5.558,502.0
5.559,509.0
5.5600000000000005,522.0
5.561,526.0
5.562,527.0
5.563,534.0
5.564,537.0
5.565,540.0
5.566,539.0
5.567,535.0
5.5680000000000005,528.0
5.569,524.0
5.57,515.0
5.571,512.0
5.572,504.0
5.573,502.0
5.574,499.0
5.575,490.0
5.5760000000000005,464.0
5.577,458.0
5.578,461.0
5.579,464.0
5.58,480.0
5.581,496.0
5.582,513.0
5.583,521.0
5.5840000000000005,526.0
5.585,526.0
5.586,541.0
5.587,552.0
5.588,550.0
5.589,535.0
5.59,541.0
5.591,537.0
5.5920000000000005,528.0
5.593,527.0
5.594,525.0
5.595,514.0
5.596,502.0
5.597,497.0
5.598,493.0
5.599,482.0
5.6000000000000005,481.0
5.601,484.0
5.602,477.0
5.603,468.0
5.604,486.0
5.605,507.0
5.606,521.0
5.607,527.0
5.6080000000000005,534.0
5.609,536.0
5.61,534.0
5.611,534.0
5.612,509.0
5.613,484.0
5.614,489.0
5.615,483.0
5.6160000000000005,486.0
5.617,497.0
5.618,506.0
5.619,511.0
5.62,492.0
5.621,458.0
5.622,444.0
5.623,472.0
5.6240000000000006,506.0
5.625,540.0
5.626,562.0
5.627,556.0
5.628,546.0
5.6290000000000004,539.0
5.63,558.0
5.631,574.0
5.632,581.0
5.633,577.0
5.634,548.0
5.635,527.0
5.636,509.0
5.6370000000000005,497.0
5.638,484.0
5.639,480.0
5.64,454.0
5.641,447.0
5.642,435.0
5.643,451.0
5.644,463.0
5.6450000000000005,469.0
5.646,476.0
5.647,482.0
5.648,465.0
5.649,475.0
5.65,507.0
5.651,532.0
5.652,543.0
5.6530000000000005,547.0
5.654,547.0
5.655,549.0
5.656,549.0
5.657,544.0
5.658,545.0
5.659,546.0
5.66,535.0
5.6610000000000005,529.0
5.662,521.0
5.663,504.0
5.664,487.0
5.665,464.0
5.666,468.0
5.667,436.0
5.668,399.0
5.6690000000000005,435.0
5.67,485.0
5.671,519.0
5.672,547.0
5.673,567.0
5.674,579.0
5.675,579.0
5.676,570.0
5.6770000000000005,576.0
5.678,571.0
5.679,551.0
5.68,533.0
5.681,510.0
5.682,489.0
5.683,484.0
5.684,478.0
5.6850000000000005,472.0
5.686,449.0
5.687,441.0
5.688,444.0
5.689,467.0
5.69,490.0
5.691,508.0
5.692,509.0
5.6930000000000005,510.0
5.694,521.0
5.695,539.0
5.696,544.0
5.697,551.0
5.698,529.0
5.699,519.0
5.7,501.0
5.7010000000000005,485.0
5.702,494.0
5.703,503.0
5.704,507.0
5.705,508.0
5.706,511.0
5.707,511.0
5.708,508.0
5.7090000000000005,494.0
5.71,468.0
5.711,471.0
5.712,489.0
5.713,504.0
5.714,512.0
5.715,516.0
5.716,521.0
5.7170000000000005,516.0
5.718,527.0
5.719,537.0
5.72,538.0
5.721,537.0
5.722,528.0
5.723,519.0
5.724,523.0
5.7250000000000005,516.0
5.726,506.0
5.727,493.0
5.728,476.0
5.729,477.0
5.73,479.0
5.731,486.0
5.732,487.0
5.7330000000000005,490.0
5.734,511.0
5.735,530.0
5.736,529.0
5.737,531.0
5.738,535.0
5.739,542.0
5.74,542.0
5.7410000000000005,543.0
5.742,531.0
5.743,489.0
5.744,455.0
5.745,469.0
5.746,483.0
5.747,492.0
5.748,504.0
5.7490000000000006,525.0
5.75,524.0
5.751,531.0
5.752,525.0
5.753,495.0
5.7540000000000004,488.0
5.755,505.0
5.756,491.0
5.757000000000001,504.0
5.758,523.0
5.759,512.0
5.76,493.0
5.761,471.0
5.7620000000000005,490.0
5.763,529.0
5.764,555.0
5.765,559.0
5.766,565.0
5.767,566.0
5.768,552.0
5.769,528.0
5.7700000000000005,529.0
5.771,521.0
5.772,469.0
5.773,451.0
5.774,455.0
5.775,462.0
5.776,461.0
5.777,459.0
5.7780000000000005,461.0
5.779,456.0
5.78,482.0
5.781,516.0
5.782,543.0
5.783,569.0
5.784,579.0
5.785,589.0
5.7860000000000005,576.0
5.787,566.0
5.788,561.0
5.789,539.0
5.79,527.0
5.791,521.0
5.792,507.0
5.793,476.0
5.7940000000000005,468.0
5.795,471.0
5.796,462.0
5.797,465.0
5.798,474.0
5.799,481.0
5.8,490.0
5.801,510.0
5.8020000000000005,511.0
5.803,496.0
5.804,482.0
5.805,489.0
5.806,483.0
5.807,482.0
5.808,491.0
5.809,503.0
5.8100000000000005,505.0
5.811,503.0
5.812,499.0
5.813,506.0
5.814,523.0
5.815,531.0
5.816,526.0
5.817,533.0
5.8180000000000005,532.0
5.819,538.0
5.82,543.0
5.821,547.0
5.822,547.0
5.823,539.0
5.824,524.0
5.825,503.0
5.8260000000000005,495.0
5.827,487.0
5.828,487.0
5.829,483.0
5.83,491.0
5.831,483.0
5.832,489.0
5.833,508.0
5.8340000000000005,511.0
5.835,518.0
5.836,520.0
5.837,519.0
5.838,521.0
5.839,522.0
5.84,532.0
5.841,529.0
5.8420000000000005,510.0
5.843,466.0
5.844,459.0
5.845,479.0
5.846,499.0
5.847,504.0
5.848,502.0
5.849,510.0
5.8500000000000005,521.0
5.851,542.0
5.852,553.0
5.853,537.0
5.854,531.0
5.855,533.0
5.856,516.0
5.857,499.0
5.8580000000000005,493.0
5.859,485.0
5.86,468.0
5.861,468.0
5.862,470.0
5.863,496.0
5.864,519.0
5.865,535.0
5.8660000000000005,533.0
5.867,534.0
5.868,528.0
5.869,532.0
5.87,527.0
5.871,521.0
5.872,516.0
5.873,510.0
5.8740000000000006,499.0
5.875,495.0
5.876,492.0
5.877,470.0
5.878,477.0
5.8790000000000004,496.0
5.88,508.0
5.881,513.0
5.882000000000001,510.0
5.883,495.0
5.884,514.0
5.885,529.0
5.886,527.0
5.8870000000000005,528.0
5.888,519.0
5.889,514.0
5.89,508.0
5.891,509.0
5.892,508.0
5.893,506.0
5.894,498.0
5.8950000000000005,500.0
5.896,495.0
5.897,492.0
5.898,497.0
5.899,502.0
5.9,507.0
5.901,512.0
5.902,520.0
5.9030000000000005,524.0
5.904,523.0
5.905,519.0
5.906,517.0
5.907,514.0
5.908,527.0
5.909,530.0
5.91,522.0
5.9110000000000005,510.0
5.912,498.0
5.913,492.0
5.914,486.0
5.915,471.0
5.916,466.0
5.917,470.0
5.918,484.0
5.9190000000000005,504.0
5.92,510.0
5.921,519.0
5.922,535.0
5.923,542.0
5.924,541.0
5.925,543.0
5.926,543.0
5.9270000000000005,532.0
5.928,534.0
5.929,519.0
5.93,507.0
5.931,510.0
5.932,515.0
5.933,528.0
5.934,505.0
5.9350000000000005,475.0
5.936,468.0
5.937,462.0
5.938,474.0
5.939,489.0
5.94,499.0
5.941,490.0
5.942,496.0
5.9430000000000005,507.0
5.944,513.0
5.945,527.0
5.946,532.0
5.947,533.0
5.948,545.0
5.949,548.0
5.95,544.0
5.9510000000000005,538.0
5.952,521.0
5.953,519.0
5.954,515.0
5.955,504.0
5.956,486.0
5.957,471.0
5.958,478.0
5.9590000000000005,489.0
5.96,488.0
5.961,490.0
5.962,499.0
5.963,505.0
5.964,513.0
5.965,511.0
5.966,500.0
5.9670000000000005,489.0
5.968,498.0
5.969,511.0
5.97,513.0
5.971,517.0
5.972,519.0
5.973,505.0
5.974,501.0
5.9750000000000005,499.0
5.976,495.0
5.977,502.0
5.978,507.0
5.979,512.0
5.98,523.0
5.981,519.0
5.982,518.0
5.9830000000000005,545.0
5.984,550.0
5.985,544.0
5.986,526.0
5.987,517.0
5.988,506.0
5.989,500.0
5.99,495.0
5.9910000000000005,493.0
5.992,493.0
5.993,488.0
5.994,490.0
5.995,497.0
5.996,498.0
5.997,487.0
5.998,492.0
5.9990000000000006,496.0
6.0,500.0
6.001,487.0
6.002,503.0
6.003,511.0
6.0040000000000004,520.0
6.005,540.0
6.006,572.0
6.007000000000001,577.0
6.008,561.0
6.009,543.0
6.01,539.0
6.011,494.0
6.0120000000000005,480.0
6.013,479.0
6.014,483.0
6.015000000000001,487.0
6.016,483.0
6.017,482.0
6.018,477.0
6.019,485.0
6.0200000000000005,516.0
6.021,530.0
6.022,516.0
6.023,493.0
6.024,491.0
6.025,505.0
6.026,508.0
6.027,512.0
6.0280000000000005,516.0
6.029,520.0
6.03,518.0
6.031,518.0
6.032,515.0
6.033,514.0
6.034,522.0
6.035,513.0
6.0360000000000005,489.0
6.037,480.0
6.038,484.0
6.039,506.0
6.04,514.0
6.041,513.0
6.042,541.0
6.043,552.0
6.0440000000000005,566.0
6.045,556.0
6.046,504.0
6.047,482.0
6.048,494.0
6.049,505.0
6.05,524.0
6.051,542.0
6.0520000000000005,539.0
6.053,511.0
6.054,473.0
6.055,460.0
6.056,460.0
6.057,478.0
6.058,492.0
6.059,491.0
6.0600000000000005,475.0
6.061,437.0
6.062,440.0
6.063,472.0
6.064,480.0
6.065,501.0
6.066,538.0
6.067,551.0
6.0680000000000005,583.0
6.069,574.0
6.07,561.0
6.071,579.0
6.072,585.0
6.073,579.0
6.074,559.0
6.075,536.0
6.0760000000000005,522.0
6.077,505.0
6.078,484.0
6.079,487.0
6.08,485.0
6.081,492.0
6.082,497.0
6.083,439.0
6.0840000000000005,407.0
6.085,402.0
6.086,435.0
6.087,486.0
6.088,523.0
6.089,543.0
6.09,558.0
6.091,575.0
6.0920000000000005,573.0
6.093,562.0
6.094,540.0
6.095,526.0
6.096,516.0
6.097,524.0
6.098,509.0
6.099,502.0
6.1000000000000005,474.0
6.101,451.0
6.102,451.0
6.103,456.0
6.104,457.0
6.105,492.0
6.106,524.0
6.107,521.0
6.1080000000000005,513.0
6.109,526.0
6.11,539.0
6.111,547.0
6.112,519.0
6.113,498.0
6.114,505.0
6.115,520.0
6.1160000000000005,513.0
6.117,513.0
6.118,525.0
6.119,501.0
6.12,474.0
6.121,483.0
6.122,493.0
6.123,507.0
6.1240000000000006,516.0
6.125,537.0
6.126,538.0
6.127,547.0
6.128,553.0
6.1290000000000004,554.0
6.13,551.0
6.131,531.0
6.132000000000001,501.0
6.133,502.0
6.134,527.0
6.135,498.0
6.136,466.0
6.1370000000000005,443.0
6.138,440.0
6.139,464.0
6.140000000000001,531.0
6.141,566.0
6.142,599.0
6.143,575.0
6.144,578.0
6.1450000000000005,516.0
6.146,427.0
6.147,412.0
6.148,410.0
6.149,408.0
6.15,443.0
6.151,508.0
6.152,543.0
6.1530000000000005,558.0
6.154,580.0
6.155,576.0
6.156,556.0
6.157,529.0
6.158,497.0
6.159,484.0
6.16,499.0
6.1610000000000005,505.0
6.162,513.0
6.163,500.0
6.164,478.0
6.165,428.0
6.166,401.0
6.167,444.0
6.168,489.0
6.1690000000000005,527.0
6.17,562.0
6.171,561.0
6.172,568.0
6.173,590.0
6.174,586.0
6.175,565.0
6.176,551.0
6.1770000000000005,537.0
6.178,508.0
6.179,493.0
6.18,478.0
6.181,480.0
6.182,470.0
6.183,460.0
6.184,492.0
6.1850000000000005,502.0
6.186,523.0
6.187,524.0
6.188,508.0
6.189,543.0
6.19,552.0
6.191,511.0
6.192,540.0
6.1930000000000005,512.0
6.194,436.0
6.195,486.0
6.196,507.0
6.197,513.0
6.198,516.0
6.199,524.0
6.2,481.0
6.2010000000000005,494.0
6.202,503.0
6.203,490.0
6.204,502.0
6.205,475.0
6.206,461.0
6.207,476.0
6.208,482.0
6.2090000000000005,516.0
6.21,525.0
6.211,548.0
6.212,579.0
6.213,556.0
6.214,526.0
6.215,533.0
6.216,561.0
6.2170000000000005,537.0
6.218,527.0
6.219,537.0
6.22,537.0
6.221,509.0
6.222,511.0
6.223,504.0
6.224,481.0
6.2250000000000005,446.0
6.226,455.0
6.227,479.0
6.228,507.0
6.229,567.0
6.23,543.0
6.231,510.0
6.232,499.0
6.2330000000000005,388.0
6.234,363.0
6.235,435.0
6.236,499.0
6.237,520.0
6.238,508.0
6.239,533.0
6.24,524.0
6.2410000000000005,553.0
6.242,583.0
6.243,598.0
6.244,591.0
6.245,578.0
6.246,547.0
6.247,506.0
6.248,478.0
6.2490000000000006,467.0
6.25,470.0
6.251,492.0
6.252,496.0
6.253,497.0
6.2540000000000004,498.0
6.255,497.0
6.256,471.0
6.257000000000001,444.0
6.258,454.0
6.259,462.0
6.26,483.0
6.261,514.0
6.2620000000000005,540.0
6.263,560.0
6.264,571.0
6.265000000000001,571.0
6.266,572.0
6.267,567.0
6.268,570.0
6.269,525.0
6.2700000000000005,482.0
6.271,459.0
6.272,385.0
6.273,352.0
6.274,342.0
6.275,359.0
6.276,415.0
6.277,447.0
6.2780000000000005,549.0
6.279,615.0
6.28,658.0
6.281,696.0
6.282,679.0
6.283,626.0
6.284,579.0
6.285,530.0
6.2860000000000005,515.0
6.287,515.0
6.288,507.0
6.289,455.0
6.29,430.0
6.291,370.0
6.292,414.0
6.293,422.0
6.2940000000000005,424.0
6.295,542.0
6.296,602.0
6.297,591.0
6.298,608.0
6.299,613.0
6.3,607.0
6.301,597.0
6.3020000000000005,577.0
6.303,529.0
6.304,468.0
6.305,395.0
6.306,367.0
6.307,398.0
6.308,432.0
6.309,470.0
6.3100000000000005,509.0
6.311,573.0
6.312,621.0
6.313,587.0
6.314,527.0
6.315,526.0
6.316,496.0
6.317,489.0
6.3180000000000005,523.0
6.319,551.0
6.32,554.0
6.321,505.0
6.322,408.0
6.323,390.0
6.324,360.0
6.325,365.0
6.3260000000000005,398.0
6.327,410.0
6.328,458.0
6.329,539.0
6.33,587.0
6.331,600.0
6.332,639.0
6.333,662.0
6.3340000000000005,622.0
6.335,638.0
6.336,567.0
6.337,536.0
6.338,486.0
6.339,441.0
6.34,446.0
6.341,432.0
6.3420000000000005,451.0
6.343,459.0
6.344,404.0
6.345,448.0
6.346,497.0
6.347,553.0
6.348,574.0
6.349,543.0
6.3500000000000005,553.0
6.351,537.0
6.352,519.0
6.353,564.0
6.354,560.0
6.355,574.0
6.356,564.0
6.357,542.0
6.3580000000000005,539.0
6.359,519.0
6.36,492.0
6.361,480.0
6.362,469.0
6.363,451.0
6.364,461.0
6.365,455.0
6.3660000000000005,440.0
6.367,456.0
6.368,465.0
6.369,422.0
6.37,412.0
6.371,417.0
6.372,475.0
6.373,562.0
6.3740000000000006,633.0
6.375,665.0
6.376,639.0
6.377,647.0
6.378,545.0
6.3790000000000004,508.0
6.38,506.0
6.381,409.0
6.382000000000001,371.0
6.383,406.0
6.384,441.0
6.385,492.0
6.386,554.0
6.3870000000000005,464.0
6.388,377.0
6.389,415.0
6.390000000000001,452.0
6.391,520.0
6.392,659.0
6.393,763.0
6.394,812.0
6.3950000000000005,775.0
6.396,647.0
6.397,569.0
6.398000000000001,479.0
6.399,435.0
6.4,415.0
6.401,386.0
6.402,401.0
6.4030000000000005,362.0
6.404,416.0
6.405,512.0
6.406,547.0
6.407,536.0
6.408,538.0
6.409,545.0
6.41,494.0
6.4110000000000005,481.0
6.412,456.0
6.413,448.0
6.414,419.0
6.415,363.0
6.416,363.0
6.417,384.0
6.418,428.0
6.4190000000000005,534.0
6.42,620.0
6.421,686.0
6.422,683.0
6.423,641.0
6.424,664.0
6.425,603.0
6.426,531.0
6.4270000000000005,519.0
6.428,475.0
6.429,438.0
6.43,428.0
6.431,417.0
6.432,416.0
6.433,436.0
6.434,479.0
6.4350000000000005,540.0
6.436,564.0
6.437,579.0
6.438,580.0
6.439,567.0
6.44,547.0
6.441,543.0
6.442,526.0
6.4430000000000005,492.0
6.444,453.0
6.445,427.0
6.446,454.0
6.447,470.0
6.448,469.0
6.449,499.0
6.45,527.0
6.4510000000000005,555.0
6.452,535.0
6.453,486.0
6.454,459.0
6.455,454.0
6.456,451.0
6.457,485.0
6.458,474.0
6.4590000000000005,501.0
6.46,527.0
6.461,537.0
6.462,536.0
6.463,503.0
6.464,512.0
6.465,553.0
6.466,628.0
6.4670000000000005,608.0
6.468,547.0
6.469,489.0
6.47,477.0
6.471,451.0
6.472,474.0
6.473,524.0
6.474,571.0
6.4750000000000005,562.0
6.476,560.0
6.477,544.0
6.478,543.0
6.479,557.0
6.48,542.0
6.481,515.0
6.482,494.0
6.4830000000000005,508.0
6.484,459.0
6.485,348.0
6.486,288.0
6.487,280.0
6.488,312.0
6.489,462.0
6.49,587.0
6.4910000000000005,672.0
6.492,703.0
6.493,673.0
6.494,682.0
6.495,659.0
6.496,623.0
6.497,574.0
6.498,511.0
6.4990000000000006,454.0
6.5,435.0
6.501,391.0
6.502,399.0
6.503,402.0
6.5040000000000004,411.0
6.505,472.0
6.506,516.0
6.507000000000001,545.0
6.508,575.0
6.509,531.0
6.51,436.0
6.511,436.0
6.5120000000000005,470.0
6.513,480.0
6.514,499.0
6.515000000000001,526.0
6.516,533.0
6.517,546.0
6.518,553.0
6.519,551.0
6.5200000000000005,545.0
6.521,550.0
6.522,524.0
6.523000000000001,529.0
6.524,511.0
6.525,484.0
6.526,464.0
6.527,496.0
6.5280000000000005,526.0
6.529,536.0
6.53,513.0
6.531,452.0
6.532,418.0
6.533,479.0
6.534,534.0
6.535,523.0
6.5360000000000005,510.0
6.537,527.0
6.538,539.0
6.539,529.0
6.54,517.0
6.541,506.0
6.542,497.0
6.543,500.0
6.5440000000000005,511.0
6.545,525.0
6.546,547.0
6.547,549.0
6.548,511.0
6.549,491.0
6.55,459.0
6.551,418.0
6.5520000000000005,446.0
6.553,483.0
6.554,493.0
6.555,507.0
6.556,513.0
6.557,512.0
6.558,540.0
6.559,563.0
6.5600000000000005,563.0
6.561,496.0
6.562,464.0
6.563,455.0
6.564,465.0
6.565,491.0
6.566,551.0
6.567,651.0
6.5680000000000005,700.0
6.569,671.0
6.57,642.0
6.571,578.0
6.572,508.0
6.573,476.0
6.574,487.0
6.575,416.0
6.5760000000000005,357.0
6.577,356.0
6.578,369.0
6.579,441.0
6.58,490.0
6.581,537.0
6.582,561.0
6.583,556.0
6.5840000000000005,535.0
6.585,503.0
6.586,463.0
6.587,497.0
6.588,510.0
6.589,524.0
6.59,525.0
6.591,529.0
6.5920000000000005,550.0
6.593,549.0
6.594,521.0
6.595,503.0
6.596,473.0
6.597,467.0
6.598,476.0
6.599,482.0
6.6000000000000005,522.0
6.601,542.0
6.602,556.0
6.603,540.0
6.604,505.0
6.605,513.0
6.606,519.0
6.607,524.0
6.6080000000000005,517.0
6.609,436.0
6.61,451.0
6.611,483.0
6.612,508.0
6.613,492.0
6.614,433.0
6.615,440.0
6.6160000000000005,457.0
6.617,477.0
6.618,554.0
6.619,620.0
6.62,594.0
6.621,559.0
6.622,519.0
6.623,508.0
6.6240000000000006,487.0
6.625,478.0
6.626,495.0
6.627,551.0
6.628,624.0
6.6290000000000004,657.0
6.63,592.0
6.631,568.0
6.632000000000001,526.0
6.633,487.0
6.634,463.0
6.635,449.0
6.636,460.0
6.6370000000000005,438.0
6.638,446.0
6.639,496.0
6.640000000000001,509.0
6.641,514.0
6.642,535.0
6.643,528.0
6.644,488.0
6.6450000000000005,466.0
6.646,438.0
6.647,404.0
6.648000000000001,399.0
6.649,412.0
6.65,454.0
6.651,513.0
6.652,550.0
6.6530000000000005,569.0
6.654,582.0
6.655,579.0
6.656000000000001,574.0
6.657,587.0
6.658,582.0
6.659,568.0
6.66,551.0
6.6610000000000005,560.0
6.662,543.0
6.663,487.0
6.664,472.0
6.665,460.0
6.666,475.0
6.667,524.0
6.668,552.0
6.6690000000000005,523.0
6.67,421.0
6.671,399.0
6.672,431.0
6.673,467.0
6.674,475.0
6.675,479.0
6.676,477.0
6.6770000000000005,510.0
6.678,518.0
6.679,491.0
6.68,461.0
6.681,476.0
6.682,494.0
6.683,526.0
6.684,562.0
6.6850000000000005,633.0
6.686,661.0
6.687,646.0
6.688,611.0
6.689,628.0
6.69,570.0
6.691,503.0
6.692,433.0
6.6930000000000005,379.0
6.694,372.0
6.695,466.0
6.696,468.0
6.697,493.0
6.698,509.0
6.699,558.0
6.7,566.0
6.7010000000000005,544.0
6.702,496.0
6.703,481.0
6.704,460.0
6.705,463.0
6.706,499.0
6.707,511.0
6.708,503.0
6.7090000000000005,514.0
6.71,499.0
6.711,458.0
6.712,464.0
6.713,512.0
6.714,533.0
6.715,573.0
6.716,576.0
6.7170000000000005,564.0
6.718,532.0
6.719,515.0
6.72,513.0
6.721,503.0
6.722,492.0
6.723,509.0
6.724,518.0
6.7250000000000005,493.0
6.726,437.0
6.727,372.0
6.728,355.0
6.729,359.0
6.73,433.0
6.731,528.0
6.732,591.0
6.7330000000000005,646.0
6.734,735.0
6.735,735.0
6.736,664.0
6.737,610.0
6.738,540.0
6.739,466.0
6.74,423.0
6.7410000000000005,434.0
6.742,431.0
6.743,442.0
6.744,460.0
6.745,448.0
6.746,467.0
6.747,500.0
6.748,496.0
6.7490000000000006,437.0
6.75,366.0
6.751,369.0
6.752,446.0
6.753,479.0
6.7540000000000004,566.0
6.755,639.0
6.756,738.0
6.757000000000001,658.0
6.758,648.0
6.759,643.0
6.76,617.0
6.761,523.0
6.7620000000000005,480.0
6.763,494.0
6.764,462.0
6.765000000000001,436.0
6.766,409.0
6.767,408.0
6.768,430.0
6.769,448.0
6.7700000000000005,489.0
6.771,519.0
6.772,532.0
6.773000000000001,538.0
6.774,516.0
6.775,503.0
6.776,503.0
6.777,526.0
6.7780000000000005,544.0
6.779,508.0
6.78,476.0
6.781000000000001,441.0
6.782,484.0
6.783,557.0
6.784,518.0
6.785,492.0
6.7860000000000005,479.0
6.787,521.0
6.788,534.0
6.789,545.0
6.79,528.0
6.791,514.0
6.792,496.0
6.793,476.0
6.7940000000000005,471.0
6.795,435.0
6.796,455.0
6.797,490.0
6.798,523.0
6.799,547.0
6.8,569.0
6.801,606.0
6.8020000000000005,590.0
6.803,574.0
6.804,529.0
6.805,491.0
6.806,459.0
6.807,454.0
6.808,480.0
6.809,489.0
6.8100000000000005,458.0
6.811,480.0
6.812,523.0
6.813,537.0
6.814,536.0
6.815,493.0
6.816,476.0
6.817,572.0
6.8180000000000005,568.0
6.819,526.0
6.82,502.0
6.821,483.0
6.822,479.0
6.823,492.0
6.824,515.0
6.825,515.0
6.8260000000000005,505.0
6.827,508.0
6.828,527.0
6.829,523.0
6.83,521.0
6.831,494.0
6.832,498.0
6.833,479.0
6.8340000000000005,422.0
6.835,415.0
6.836,448.0
6.837,503.0
6.838,571.0
6.839,619.0
6.84,656.0
6.841,607.0
6.8420000000000005,508.0
6.843,479.0
6.844,482.0
6.845,502.0
6.846,480.0
6.847,488.0
6.848,515.0
6.849,515.0
6.8500000000000005,527.0
6.851,537.0
6.852,519.0
6.853,491.0
6.854,471.0
6.855,428.0
6.856,421.0
6.857,415.0
6.8580000000000005,442.0
6.859,426.0
6.86,460.0
6.861,516.0
6.862,553.0
6.863,591.0
6.864,647.0
6.865,696.0
6.8660000000000005,680.0
6.867,630.0
6.868,547.0
6.869,498.0
6.87,481.0
6.871,457.0
6.872,417.0
6.873,387.0
6.8740000000000006,360.0
6.875,391.0
6.876,481.0
6.877,483.0
6.878,485.0
6.8790000000000004,526.0
6.88,574.0
6.881,601.0
6.882000000000001,610.0
6.883,549.0
6.884,542.0
6.885,556.0
6.886,563.0
6.8870000000000005,516.0
6.888,465.0
6.889,427.0
6.890000000000001,415.0
6.891,417.0
6.892,455.0
6.893,489.0
6.894,506.0
6.8950000000000005,538.0
6.896,567.0
6.897,588.0
6.898000000000001,518.0
6.899,509.0
6.9,538.0
6.901,562.0
6.902,541.0
6.9030000000000005,518.0
6.904,494.0
6.905,450.0
6.906000000000001,466.0
6.907,518.0
6.908,521.0
6.909,493.0
6.91,488.0
6.9110000000000005,488.0
6.912,475.0
6.913,492.0
6.914,495.0
6.915,502.0
6.916,497.0
6.917,520.0
6.918,534.0
6.9190000000000005,534.0
6.92,506.0
6.921,519.0
6.922,522.0
6.923,512.0
6.924,550.0
6.925,587.0
6.926,551.0
6.9270000000000005,520.0
6.928,527.0
6.929,529.0
6.93,534.0
6.931,510.0
6.932,480.0
6.933,451.0
6.934,400.0
6.9350000000000005,405.0
6.936,423.0
6.937,436.0
6.938,478.0
6.939,538.0
6.94,583.0
6.941,585.0
6.942,580.0
6.9430000000000005,576.0
6.944,569.0
6.945,529.0
6.946,503.0
6.947,501.0
6.948,496.0
6.949,496.0
6.95,507.0
6.9510000000000005,504.0
6.952,485.0
6.953,504.0
6.954,503.0
6.955,500.0
6.956,500.0
6.957,482.0
6.958,478.0
6.9590000000000005,507.0
6.96,515.0
6.961,515.0
6.962,530.0
6.963,516.0
6.964,482.0
6.965,427.0
6.966,472.0
6.9670000000000005,476.0
6.968,489.0
6.969,515.0
6.97,551.0
6.971,518.0
6.972,483.0
6.973,481.0
6.974,539.0
6.9750000000000005,551.0
6.976,542.0
6.977,539.0
6.978,567.0
6.979,553.0
6.98,543.0
6.981,536.0
6.982,536.0
6.9830000000000005,517.0
6.984,515.0
6.985,513.0
6.986,495.0
6.987,483.0
6.988,475.0
6.989,482.0
6.99,490.0
6.9910000000000005,497.0
6.992,496.0
6.993,493.0
6.994,487.0
6.995,486.0
6.996,496.0
6.997,502.0
6.998,507.0
6.9990000000000006,507.0
7.0,515.0
7.001,521.0
7.002,526.0
7.003,523.0
7.0040000000000004,524.0
7.005,523.0
7.006,517.0
7.007000000000001,507.0
7.008,516.0
7.009,520.0
7.01,518.0
7.011,511.0
7.0120000000000005,492.0
7.013,462.0
7.014,463.0
7.015000000000001,470.0
7.016,479.0
7.017,520.0
7.018,547.0
7.019,569.0
7.0200000000000005,550.0
7.021,531.0
7.022,530.0
7.023000000000001,510.0
7.024,491.0
7.025,479.0
7.026,477.0
7.027,485.0
7.0280000000000005,499.0
7.029,507.0
7.03,524.0
7.031000000000001,526.0
7.032,526.0
7.033,519.0
7.034,515.0
7.035,531.0
7.0360000000000005,537.0
7.037,515.0
7.038,501.0
7.039000000000001,501.0
7.04,503.0
7.041,504.0
7.042,495.0
7.043,494.0
7.0440000000000005,492.0
7.045,496.0
7.046,500.0
7.047,504.0
7.048,512.0
7.049,509.0
7.05,512.0
7.051,524.0
7.0520000000000005,517.0
7.053,510.0
7.054,522.0
7.055,515.0
7.056,527.0
7.057,518.0
7.058,524.0
7.059,499.0
7.0600000000000005,484.0
7.061,481.0
7.062,484.0
7.063,491.0
7.064,504.0
7.065,519.0
7.066,520.0
7.067,527.0
7.0680000000000005,516.0
7.069,515.0
7.07,500.0
7.071,492.0
7.072,504.0
7.073,512.0
7.074,514.0
7.075,515.0
7.0760000000000005,515.0
7.077,511.0
7.078,510.0
7.079,511.0
7.08,506.0
7.081,509.0
7.082,508.0
7.083,514.0
7.0840000000000005,521.0
7.085,520.0
7.086,516.0
7.087,511.0
7.088,515.0
7.089,510.0
7.09,497.0
7.091,500.0
7.0920000000000005,500.0
7.093,499.0
7.094,500.0
7.095,503.0
7.096,504.0
7.097,509.0
7.098,510.0
7.099,516.0
7.1000000000000005,524.0
7.101,529.0
7.102,520.0
7.103,511.0
7.104,508.0
7.105,502.0
7.106,502.0
7.107,499.0
7.1080000000000005,501.0
7.109,500.0
7.11,502.0
7.111,514.0
7.112,519.0
7.113,516.0
7.114,501.0
7.115,467.0
7.1160000000000005,470.0
7.117,511.0
7.118,529.0
7.119,538.0
7.12,541.0
7.121,528.0
7.122,524.0
7.123,517.0
7.1240000000000006,507.0
7.125,498.0
7.126,494.0
7.127,495.0
7.128,505.0
7.1290000000000004,510.0
7.13,508.0
7.131,507.0
7.132000000000001,502.0
7.133,506.0
7.134,527.0
7.135,535.0
7.136,530.0
7.1370000000000005,505.0
7.138,482.0
7.139,482.0
7.140000000000001,503.0
7.141,513.0
7.142,511.0
7.143,498.0
7.144,500.0
7.1450000000000005,519.0
7.146,518.0
7.147,511.0
7.148000000000001,509.0
7.149,493.0
7.15,498.0
7.151,518.0
7.152,521.0
7.1530000000000005,522.0
7.154,520.0
7.155,512.0
7.156000000000001,500.0
7.157,495.0
7.158,500.0
7.159,503.0
7.16,504.0
7.1610000000000005,507.0
7.162,508.0
7.163,506.0
7.164000000000001,516.0
7.165,523.0
7.166,515.0
7.167,505.0
7.168,508.0
7.1690000000000005,526.0
7.17,522.0
7.171,520.0
7.172,502.0
7.173,492.0
7.174,496.0
7.175,492.0
7.176,502.0
7.1770000000000005,505.0
7.178,504.0
7.179,504.0
7.18,504.0
7.181,508.0
7.182,513.0
7.183,518.0
7.184,515.0
7.1850000000000005,517.0
7.186,503.0
7.187,508.0
7.188,516.0
7.189,519.0
7.19,515.0
7.191,515.0
7.192,510.0
7.1930000000000005,515.0
7.194,522.0
7.195,528.0
7.196,522.0
7.197,490.0
7.198,474.0
7.199,469.0
7.2,494.0
7.2010000000000005,521.0
7.202,542.0
7.203,545.0
7.204,532.0
7.205,508.0
7.206,496.0
7.207,495.0
7.208,501.0
7.2090000000000005,495.0
7.21,487.0
7.211,487.0
7.212,495.0
7.213,500.0
7.214,504.0
7.215,512.0
7.216,521.0
7.2170000000000005,522.0
7.218,526.0
7.219,528.0
7.22,526.0
7.221,520.0
7.222,508.0
7.223,502.0
7.224,507.0
7.2250000000000005,505.0
7.226,503.0
7.227,503.0
7.228,498.0
7.229,502.0
7.23,509.0
7.231,511.0
7.232,508.0
7.2330000000000005,511.0
7.234,519.0
7.235,519.0
7.236,516.0
7.237,514.0
7.238,511.0
7.239,510.0
7.24,503.0
7.2410000000000005,504.0
7.242,502.0
7.243,494.0
7.244,487.0
7.245,492.0
7.246,504.0
7.247,512.0
7.248,520.0
7.2490000000000006,535.0
7.25,540.0
7.251,533.0
7.252,530.0
7.253,528.0
7.2540000000000004,512.0
7.255,505.0
7.256,504.0
7.257000000000001,498.0
7.258,491.0
7.259,490.0
7.26,491.0
7.261,495.0
7.2620000000000005,494.0
7.263,506.0
7.264,514.0
7.265000000000001,518.0
7.266,515.0
7.267,509.0
7.268,516.0
7.269,516.0
7.2700000000000005,511.0
7.271,511.0
7.272,513.0
7.273000000000001,509.0
7.274,509.0
7.275,512.0
7.276,508.0
7.277,508.0
7.2780000000000005,503.0
7.279,494.0
7.28,489.0
7.281000000000001,508.0
7.282,517.0
7.283,523.0
7.284,525.0
7.285,516.0
7.2860000000000005,510.0
7.287,512.0
7.288,514.0
7.289000000000001,512.0
7.29,514.0
7.291,510.0
7.292,504.0
7.293,495.0
7.2940000000000005,497.0
7.295,502.0
7.296,505.0
7.297,510.0
7.298,511.0
7.299,512.0
7.3,518.0
7.301,519.0
7.3020000000000005,514.0
7.303,512.0
7.304,507.0
7.305,507.0
7.306,505.0
7.307,508.0
7.308,504.0
7.309,504.0
7.3100000000000005,499.0
7.311,504.0
7.312,506.0
7.313,506.0
7.314,509.0
7.315,513.0
7.316,518.0
7.317,524.0
7.3180000000000005,533.0
7.319,533.0
7.32,521.0
7.321,502.0
7.322,483.0
7.323,493.0
7.324,500.0
7.325,503.0
7.3260000000000005,497.0
7.327,497.0
7.328,504.0
7.329,511.0
7.33,511.0
7.331,506.0
7.332,502.0
7.333,508.0
7.3340000000000005,512.0
7.335,519.0
7.336,528.0
7.337,521.0
7.338,518.0
7.339,508.0
7.34,502.0
7.341,507.0
7.3420000000000005,506.0
7.343,508.0
7.344,510.0
7.345,512.0
7.346,493.0
7.347,487.0
7.348,496.0
7.349,509.0
7.3500000000000005,513.0
7.351,520.0
7.352,522.0
7.353,513.0
7.354,516.0
7.355,519.0
7.356,521.0
7.357,521.0
7.3580000000000005,508.0
7.359,504.0
7.36,501.0
7.361,498.0
7.362,502.0
7.363,503.0
7.364,508.0
7.365,510.0
7.3660000000000005,511.0
7.367,509.0
7.368,511.0
7.369,498.0
7.37,495.0
7.371,504.0
7.372,517.0
7.373,527.0
7.3740000000000006,527.0
7.375,523.0
7.376,525.0
7.377,525.0
7.378,516.0
7.3790000000000004,505.0
7.38,496.0
7.381,484.0
7.382000000000001,488.0
7.383,504.0
7.384,510.0
7.385,513.0
7.386,514.0
7.3870000000000005,513.0
7.388,513.0
7.389,510.0
7.390000000000001,508.0
7.391,504.0
7.392,500.0
7.393,500.0
7.394,505.0
7.3950000000000005,507.0
7.396,503.0
7.397,499.0
7.398000000000001,510.0
7.399,519.0
7.4,523.0
7.401,535.0
7.402,528.0
7.4030000000000005,519.0
7.404,502.0
7.405,496.0
7.406000000000001,504.0
7.407,511.0
7.408,502.0
7.409,492.0
7.41,494.0
7.4110000000000005,499.0
7.412,505.0
7.413,510.0
7.414000000000001,516.0
7.415,513.0
7.416,526.0
7.417,537.0
7.418,531.0
7.4190000000000005,511.0
7.42,498.0
7.421,501.0
7.422000000000001,496.0
7.423,498.0
7.424,501.0
7.425,508.0
7.426,510.0
7.4270000000000005,513.0
7.428,514.0
7.429,511.0
7.43,508.0
7.431,505.0
7.432,501.0
7.433,502.0
7.434,508.0
7.4350000000000005,519.0
7.436,519.0
7.437,517.0
7.438,509.0
7.439,508.0
7.44,509.0
7.441,507.0
7.442,499.0
7.4430000000000005,497.0
7.444,503.0
7.445,506.0
7.446,506.0
7.447,505.0
7.448,506.0
7.449,507.0
7.45,512.0
7.4510000000000005,521.0
7.452,522.0
7.453,519.0
7.454,518.0
7.455,514.0
7.456,512.0
7.457,500.0
7.458,495.0
7.4590000000000005,496.0
7.46,499.0
7.461,500.0
7.462,502.0
7.463,497.0
7.464,499.0
7.465,510.0
7.466,518.0
7.4670000000000005,527.0
7.468,526.0
7.469,524.0
7.47,520.0
7.471,514.0
7.472,513.0
7.473,512.0
7.474,509.0
7.4750000000000005,508.0
7.476,510.0
7.477,510.0
7.478,500.0
7.479,491.0
7.48,477.0
7.481,492.0
7.482,504.0
7.4830000000000005,507.0
7.484,515.0
7.485,519.0
7.486,521.0
7.487,520.0
7.488,519.0
7.489,512.0
7.49,509.0
7.4910000000000005,514.0
7.492,512.0
7.493,508.0
7.494,508.0
7.495,508.0
7.496,504.0
7.497,502.0
7.498,504.0
7.4990000000000006,499.0
7.5,500.0
7.501,508.0
7.502,514.0
7.503,516.0
7.5040000000000004,516.0
7.505,511.0
7.506,507.0
7.507000000000001,507.0
7.508,508.0
7.509,507.0
7.51,508.0
7.511,510.0
7.5120000000000005,507.0
7.513,510.0
7.514,512.0
7.515000000000001,511.0
7.516,507.0
7.517,505.0
7.518,515.0
7.519,520.0
7.5200000000000005,516.0
7.521,513.0
7.522,510.0
7.523000000000001,507.0
7.524,503.0
7.525,499.0
7.526,499.0
7.527,501.0
7.5280000000000005,501.0
7.529,502.0
7.53,507.0
7.531000000000001,509.0
7.532,513.0
7.533,516.0
7.534,513.0
7.535,513.0
7.5360000000000005,508.0
7.537,512.0
7.538,516.0
7.539000000000001,516.0
7.54,513.0
7.541,508.0
7.542,505.0
7.543,505.0
7.5440000000000005,504.0
7.545,505.0
7.546,510.0
7.547000000000001,503.0
7.548,497.0
7.549,505.0
7.55,509.0
7.551,513.0
7.5520000000000005,519.0
7.553,519.0
7.554,512.0
7.555,510.0
7.556,513.0
7.557,513.0
7.558,510.0
7.559,506.0
7.5600000000000005,516.0
7.561,520.0
7.562,517.0
7.563,496.0
7.564,470.0
7.565,485.0
7.566,504.0
7.567,514.0
7.5680000000000005,514.0
7.569,512.0
7.57,514.0
7.571,511.0
7.572,515.0
7.573,518.0
7.574,519.0
7.575,513.0
7.5760000000000005,505.0
7.577,503.0
7.578,503.0
7.579,504.0
7.58,504.0
7.581,505.0
7.582,506.0
7.583,513.0
7.5840000000000005,515.0
7.585,518.0
7.586,519.0
7.587,511.0
7.588,491.0
7.589,486.0
7.59,493.0
7.591,499.0
7.5920000000000005,507.0
7.593,513.0
7.594,520.0
7.595,516.0
7.596,518.0
7.597,519.0
7.598,523.0
7.599,528.0
7.6000000000000005,531.0
7.601,531.0
7.602,509.0
7.603,502.0
7.604,509.0
7.605,509.0
7.606,504.0
7.607,502.0
7.6080000000000005,504.0
7.609,503.0
7.61,493.0
7.611,483.0
7.612,495.0
7.613,500.0
7.614,503.0
7.615,505.0
7.6160000000000005,508.0
7.617,511.0
7.618,516.0
7.619,518.0
7.62,521.0
7.621,516.0
7.622,517.0
7.623,518.0
7.6240000000000006,512.0
7.625,506.0
7.626,504.0
7.627,495.0
7.628,494.0
7.6290000000000004,505.0
7.63,509.0
7.631,513.0
7.632000000000001,507.0
7.633,507.0
7.634,515.0
7.635,518.0
7.636,517.0
7.6370000000000005,515.0
7.638,518.0
7.639,516.0
7.640000000000001,516.0
7.641,504.0
7.642,497.0
7.643,499.0
7.644,502.0
7.6450000000000005,506.0
7.646,514.0
7.647,522.0
7.648000000000001,516.0
7.649,510.0
7.65,511.0
7.651,499.0
7.652,499.0
7.6530000000000005,495.0
7.654,498.0
7.655,509.0
7.656000000000001,515.0
7.657,514.0
7.658,511.0
7.659,508.0
7.66,505.0
7.6610000000000005,507.0
7.662,510.0
7.663,509.0
7.664000000000001,509.0
7.665,508.0
7.666,507.0
7.667,514.0
7.668,519.0
7.6690000000000005,524.0
7.67,529.0
7.671,528.0
7.672000000000001,515.0
7.673,499.0
7.674,483.0
7.675,491.0
7.676,493.0
7.6770000000000005,503.0
7.678,505.0
7.679,507.0
7.68,515.0
7.681,512.0
7.682,519.0
7.683,526.0
7.684,523.0
7.6850000000000005,513.0
7.686,503.0
7.687,500.0
7.688,507.0
7.689,506.0
7.69,505.0
7.691,508.0
7.692,508.0
7.6930000000000005,503.0
7.694,497.0
7.695,498.0
7.696,497.0
7.697,506.0
7.698,511.0
7.699,518.0
7.7,527.0
7.7010000000000005,525.0
7.702,520.0
7.703,506.0
7.704,503.0
7.705,502.0
7.706,509.0
7.707,502.0
7.708,499.0
7.7090000000000005,496.0
7.71,494.0
7.711,502.0
7.712,509.0
7.713,526.0
7.714,546.0
7.715,538.0
7.716,519.0
7.7170000000000005,510.0
7.718,503.0
7.719,503.0
7.72,502.0
7.721,510.0
7.722,510.0
7.723,509.0
7.724,507.0
7.7250000000000005,505.0
7.726,495.0
7.727,492.0
7.728,497.0
7.729,508.0
7.73,508.0
7.731,508.0
7.732,506.0
7.7330000000000005,510.0
7.734,507.0
7.735,514.0
7.736,520.0
7.737,516.0
7.738,514.0
7.739,512.0
7.74,504.0
7.7410000000000005,502.0
7.742,505.0
7.743,518.0
7.744,512.0
7.745,504.0
7.746,502.0
7.747,499.0
7.748,495.0
7.7490000000000006,483.0
7.75,481.0
7.751,502.0
7.752,521.0
7.753,521.0
7.7540000000000004,486.0
7.755,494.0
7.756,507.0
7.757000000000001,517.0
7.758,520.0
7.759,513.0
7.76,524.0
7.761,529.0
7.7620000000000005,531.0
7.763,532.0
7.764,532.0
7.765000000000001,537.0
7.766,538.0
7.767,531.0
7.768,511.0
7.769,489.0
7.7700000000000005,478.0
7.771,486.0
7.772,513.0
7.773000000000001,532.0
7.774,528.0
7.775,519.0
7.776,510.0
7.777,501.0
7.7780000000000005,496.0
7.779,486.0
7.78,488.0
7.781000000000001,496.0
7.782,499.0
7.783,502.0
7.784,493.0
7.785,494.0
7.7860000000000005,507.0
7.787,499.0
7.788,475.0
7.789000000000001,481.0
7.79,480.0
7.791,477.0
7.792,491.0
7.793,533.0
7.7940000000000005,560.0
7.795,563.0
7.796,570.0
7.797000000000001,544.0
7.798,515.0
7.799,514.0
7.8,498.0
7.801,490.0
7.8020000000000005,494.0
7.803,528.0
7.804,518.0
7.805000000000001,507.0
7.806,510.0
7.807,516.0
7.808,504.0
7.809,508.0
7.8100000000000005,501.0
7.811,499.0
7.812,510.0
7.813,511.0
7.814,514.0
7.815,503.0
7.816,479.0
7.817,481.0
7.8180000000000005,492.0
7.819,489.0
7.82,488.0
7.821,492.0
7.822,519.0
7.823,533.0
7.824,570.0
7.825,589.0
7.8260000000000005,529.0
7.827,487.0
7.828,487.0
7.829,469.0
7.83,492.0
7.831,505.0
7.832,527.0
7.833,543.0
7.8340000000000005,536.0
7.835,521.0
7.836,510.0
7.837,510.0
7.838,512.0
7.839,506.0
7.84,503.0
7.841,503.0
7.8420000000000005,507.0
7.843,503.0
7.844,505.0
7.845,508.0
7.846,505.0
7.847,506.0
7.848,497.0
7.849,494.0
7.8500000000000005,496.0
7.851,502.0
7.852,509.0
7.853,516.0
7.854,510.0
7.855,514.0
7.856,508.0
7.857,507.0
7.8580000000000005,517.0
7.859,517.0
7.86,515.0
7.861,510.0
7.862,512.0
7.863,507.0
7.864,504.0
7.865,501.0
7.8660000000000005,495.0
7.867,497.0
7.868,503.0
7.869,510.0
7.87,510.0
7.871,516.0
7.872,521.0
7.873,512.0
7.8740000000000006,508.0
7.875,500.0
7.876,507.0
7.877,513.0
7.878,513.0
7.8790000000000004,515.0
7.88,513.0
7.881,499.0
7.882000000000001,467.0
7.883,467.0
7.884,474.0
7.885,508.0
7.886,557.0
7.8870000000000005,569.0
7.888,552.0
7.889,526.0
7.890000000000001,509.0
7.891,499.0
7.892,503.0
7.893,511.0
7.894,519.0
7.8950000000000005,510.0
7.896,503.0
7.897,502.0
7.898000000000001,499.0
7.899,480.0
7.9,473.0
7.901,476.0
7.902,504.0
7.9030000000000005,536.0
7.904,562.0
7.905,525.0
7.906000000000001,517.0
7.907,515.0
7.908,520.0
7.909,517.0
7.91,512.0
7.9110000000000005,504.0
7.912,495.0
7.913,487.0
7.914000000000001,486.0
7.915,490.0
7.916,493.0
7.917,506.0
7.918,513.0
7.9190000000000005,507.0
7.92,514.0
7.921,518.0
7.922000000000001,526.0
7.923,522.0
7.924,522.0
7.925,526.0
7.926,524.0
7.9270000000000005,516.0
7.928,510.0
7.929,509.0
7.930000000000001,494.0
7.931,491.0
7.932,497.0
7.933,506.0
7.934,504.0
7.9350000000000005,500.0
7.936,501.0
7.937,510.0
7.938,514.0
7.939,518.0
7.94,516.0
7.941,515.0
7.942,513.0
7.9430000000000005,519.0
7.944,511.0
7.945,505.0
7.946,505.0
7.947,508.0
7.948,508.0
7.949,503.0
7.95,488.0
7.9510000000000005,501.0
7.952,512.0
7.953,512.0
7.954,511.0
7.955,511.0
7.956,512.0
7.957,516.0
7.958,516.0
7.9590000000000005,510.0
7.96,504.0
7.961,499.0
7.962,497.0
7.963,519.0
7.964,519.0
7.965,501.0
7.966,488.0
7.9670000000000005,501.0
7.968,506.0
7.969,512.0
7.97,494.0
7.971,487.0
7.972,504.0
7.973,505.0
7.974,536.0
7.9750000000000005,565.0
7.976,548.0
7.977,524.0
7.978,514.0
7.979,507.0
7.98,506.0
7.981,499.0
7.982,492.0
7.9830000000000005,498.0
7.984,496.0
7.985,495.0
7.986,498.0
7.987,499.0
7.988,505.0
7.989,515.0
7.99,517.0
7.9910000000000005,533.0
7.992,534.0
7.993,511.0
7.994,504.0
7.995,499.0
7.996,497.0
7.997,500.0
7.998,503.0
7.9990000000000006,500.0
8.0,502.0
8.001,498.0
8.002,488.0
8.003,492.0
8.004,513.0
8.005,532.0
8.006,514.0
8.007,512.0
8.008000000000001,515.0
8.009,520.0
8.01,531.0
8.011000000000001,536.0
8.012,522.0
8.013,504.0
8.014,497.0
8.015,500.0
8.016,492.0
8.017,495.0
8.018,508.0
8.019,513.0
8.02,504.0
8.021,503.0
8.022,511.0
8.023,517.0
8.024000000000001,511.0
8.025,506.0
8.026,503.0
8.027000000000001,502.0
8.028,522.0
8.029,539.0
8.03,524.0
8.031,505.0
8.032,497.0
8.033,497.0
8.034,501.0
8.035,514.0
8.036,505.0
8.037,495.0
8.038,497.0
8.039,505.0
8.040000000000001,503.0
8.041,505.0
8.042,510.0
8.043000000000001,511.0
8.044,516.0
8.045,515.0
8.046,511.0
8.047,520.0
8.048,533.0
8.049,517.0
8.05,502.0
8.051,502.0
8.052,501.0
8.053,502.0
8.054,508.0
8.055,512.0
8.056000000000001,510.0
8.057,504.0
8.058,497.0
8.059000000000001,515.0
8.06,537.0
8.061,508.0
8.062,495.0
8.063,506.0
8.064,518.0
8.065,515.0
8.066,496.0
8.067,473.0
8.068,475.0
8.069,491.0
8.07,520.0
8.071,566.0
8.072000000000001,556.0
8.073,524.0
8.074,510.0
8.075,509.0
8.076,505.0
8.077,501.0
8.078,504.0
8.079,507.0
8.08,506.0
8.081,504.0
8.082,505.0
8.083,496.0
8.084,483.0
8.085,487.0
8.086,507.0
8.087,525.0
8.088000000000001,525.0
8.089,523.0
8.09,514.0
8.091,514.0
8.092,516.0
8.093,511.0
8.094,512.0
8.095,518.0
8.096,514.0
8.097,497.0
8.098,489.0
8.099,490.0
8.1,485.0
8.101,479.0
8.102,508.0
8.103,537.0
8.104000000000001,538.0
8.105,527.0
8.106,525.0
8.107,506.0
8.108,502.0
8.109,514.0
8.11,518.0
8.111,515.0
8.112,508.0
8.113,504.0
8.114,499.0
8.115,496.0
8.116,484.0
8.117,477.0
8.118,496.0
8.119,513.0
8.120000000000001,527.0
8.121,521.0
8.122,520.0
8.123,517.0
8.124,519.0
8.125,520.0
8.126,516.0
8.127,511.0
8.128,511.0
8.129,507.0
8.13,507.0
8.131,508.0
8.132,502.0
8.133000000000001,502.0
8.134,506.0
8.135,506.0
8.136000000000001,504.0
8.137,496.0
8.138,498.0
8.139,506.0
8.14,500.0
8.141,507.0
8.142,516.0
8.143,514.0
8.144,518.0
8.145,510.0
8.146,511.0
8.147,527.0
8.148,531.0
